Date,Open,High,Low,Close,Adj Close,Volume
2015-04-23,62.700001,63.110001,62.700001,62.939999,58.415485,289900
2015-04-24,63.150002,63.439999,62.639999,63.290001,58.740334,282600
2015-04-27,63.380001,63.590000,62.549999,62.790001,58.535248,491400
2015-04-28,62.720001,63.049999,62.450001,62.779999,58.525921,254100
2015-04-29,62.639999,62.740002,62.119999,62.549999,58.311501,256600
2015-04-30,62.150002,62.790001,62.000000,62.070000,57.864029,407400
2015-05-01,64.250000,64.930000,63.009998,64.050003,59.709866,1366000
2015-05-04,64.339996,64.980003,63.900002,63.959999,59.625950,922000
2015-05-05,63.740002,64.080002,62.869999,63.000000,58.731010,659200
2015-05-06,63.099998,63.340000,62.610001,63.099998,58.824242,640900
2015-05-07,63.020000,63.130001,62.720001,63.000000,58.731010,699400
2015-05-08,63.700001,63.700001,62.950001,63.160000,58.880173,522600
2015-05-11,62.970001,63.209999,62.900002,63.060001,58.786949,501400
2015-05-12,62.880001,63.709999,62.380001,63.509998,59.206451,435800
2015-05-13,63.970001,64.500000,63.970001,64.330002,59.970894,601300
2015-05-14,64.629997,65.419998,64.629997,65.209999,60.791252,712700
2015-05-15,65.209999,65.389999,64.879997,65.199997,60.781929,213600
2015-05-18,65.120003,65.839996,64.959999,65.660004,61.210770,220100
2015-05-19,65.730003,66.309998,65.629997,66.089996,61.611622,314400
2015-05-20,66.089996,66.150002,65.290001,65.459999,61.024315,170600
2015-05-21,65.239998,65.260002,64.550003,64.919998,60.520908,425200
2015-05-22,64.750000,65.010002,64.330002,64.500000,60.129364,313600
2015-05-26,64.480003,64.639999,63.680000,63.970001,59.635281,286600
2015-05-27,64.019997,64.550003,63.840000,64.480003,60.110718,258800
2015-05-28,64.400002,64.699997,64.080002,64.489998,60.120049,274100
2015-05-29,64.639999,64.849998,63.650002,63.770000,59.448826,227400
2015-06-01,64.019997,64.269997,63.310001,63.900002,59.570023,406200
2015-06-02,63.830002,64.629997,63.470001,63.950001,59.616634,302500
2015-06-03,64.250000,64.559998,63.950001,64.139999,59.793766,532800
2015-06-04,63.750000,64.250000,63.529999,63.919998,59.588654,189400
2015-06-05,63.770000,64.320000,63.450001,64.279999,59.924278,345400
2015-06-08,64.239998,64.529999,63.560001,63.750000,59.430183,333400
2015-06-09,63.750000,64.330002,63.580002,64.150002,59.803082,367100
2015-06-10,64.300003,64.559998,64.050003,64.239998,59.886982,264900
2015-06-11,64.230003,64.820000,64.209999,64.779999,60.390396,224700
2015-06-12,64.500000,64.750000,64.139999,64.580002,60.203949,247700
2015-06-15,64.059998,64.279999,63.619999,64.269997,59.914944,329600
2015-06-16,64.309998,65.779999,64.000000,64.900002,60.502266,579000
2015-06-17,64.879997,65.000000,64.129997,64.809998,60.418358,306600
2015-06-18,64.949997,65.339996,64.489998,65.269997,60.847187,210400
2015-06-19,65.300003,65.830002,65.040001,65.290001,60.865849,462200
2015-06-22,65.639999,65.639999,65.139999,65.500000,61.061604,236100
2015-06-23,65.570000,65.629997,64.809998,65.180000,60.763290,381000
2015-06-24,65.120003,65.309998,64.370003,64.449997,60.082756,189100
2015-06-25,64.680000,65.089996,64.029999,64.279999,59.924278,325000
2015-06-26,64.400002,64.629997,64.059998,64.480003,60.110718,301500
2015-06-29,64.150002,64.559998,63.680000,63.740002,59.420872,262500
2015-06-30,64.070000,64.300003,63.619999,63.770000,59.448826,478200
2015-07-01,64.139999,64.379997,63.740002,63.849998,59.523415,434100
2015-07-02,64.120003,64.260002,63.560001,63.790001,59.467472,198500
2015-07-06,63.450001,63.990002,63.169998,63.840000,59.514088,229700
2015-07-07,63.740002,64.360001,63.439999,64.300003,59.942921,262700
2015-07-08,63.889999,64.389999,63.250000,63.439999,59.141197,350800
2015-07-09,63.889999,64.040001,63.250000,63.410000,59.113224,360600
2015-07-10,63.959999,64.449997,63.509998,63.680000,59.364929,173500
2015-07-13,63.779999,64.349998,63.779999,64.260002,59.905636,262000
2015-07-14,64.019997,64.290001,63.790001,63.939999,59.607311,304000
2015-07-15,63.880001,64.279999,63.630001,63.939999,59.607311,269400
2015-07-16,64.220001,64.550003,64.120003,64.300003,59.942921,140800
2015-07-17,64.150002,64.330002,63.759998,63.930000,59.597996,216300
2015-07-20,63.820000,64.080002,63.610001,63.959999,59.625950,200800
2015-07-21,63.759998,64.089996,62.950001,63.080002,58.805588,213600
2015-07-22,62.970001,63.490002,62.950001,63.000000,58.731010,316000
2015-07-23,63.160000,63.259998,62.410000,62.459999,58.227596,156600
2015-07-24,62.340000,62.610001,61.500000,61.750000,57.565723,304100
2015-07-27,61.220001,61.570000,60.730000,61.380001,57.481434,254900
2015-07-28,61.619999,62.349998,61.270000,62.299999,58.342995,243700
2015-07-29,64.000000,67.389999,63.509998,66.349998,62.135757,758600
2015-07-30,66.320000,67.930000,66.050003,67.500000,63.212704,1281300
2015-07-31,67.790001,68.709999,67.500000,67.790001,63.484299,623300
2015-08-03,67.779999,68.059998,66.540001,67.279999,63.006695,364200
2015-08-04,67.400002,68.190002,67.230003,67.930000,63.615421,325400
2015-08-05,68.150002,69.339996,68.099998,68.809998,64.439507,249400
2015-08-06,68.779999,69.110001,68.190002,68.370003,64.027451,243300
2015-08-07,68.279999,68.900002,67.930000,68.790001,64.420776,240600
2015-08-10,69.010002,70.099998,68.839996,69.919998,65.479004,181500
2015-08-11,69.400002,69.949997,68.599998,69.180000,64.786018,385900
2015-08-12,68.629997,69.620003,67.930000,68.779999,64.411415,212200
2015-08-13,68.510002,69.580002,68.300003,69.029999,64.645538,241900
2015-08-14,69.000000,69.930000,68.849998,69.870003,65.432190,175700
2015-08-17,69.620003,70.339996,69.150002,70.089996,65.638199,161600
2015-08-18,69.800003,70.279999,69.459999,69.830002,65.394722,148000
2015-08-19,69.519997,69.720001,68.550003,69.110001,64.720436,206200
2015-08-20,68.639999,69.089996,68.000000,68.070000,63.746494,236500
2015-08-21,67.120003,68.120003,67.040001,67.610001,63.315708,443600
2015-08-24,64.800003,67.620003,64.660004,66.150002,61.948463,508300
2015-08-25,67.879997,68.089996,65.470001,65.540001,61.377205,317800
2015-08-26,66.699997,66.769997,65.410004,66.709999,62.472881,301200
2015-08-27,67.209999,67.760002,66.430000,67.660004,63.362560,280700
2015-08-28,67.220001,67.760002,66.940002,67.709999,63.409370,186200
2015-08-31,67.389999,67.790001,67.080002,67.360001,63.081612,242700
2015-09-01,66.070000,66.919998,65.779999,65.800003,61.620693,357000
2015-09-02,66.550003,66.949997,65.500000,66.480003,62.257507,248300
2015-09-03,66.699997,67.459999,66.639999,67.379997,63.100327,159400
2015-09-04,66.699997,67.459999,66.559998,67.269997,62.997326,244300
2015-09-08,67.750000,68.360001,67.279999,68.019997,63.699688,370200
2015-09-09,68.019997,68.620003,67.110001,67.779999,63.474915,432300
2015-09-10,67.209999,67.970001,66.580002,66.910004,62.660183,366100
2015-09-11,66.680000,67.419998,66.080002,67.400002,63.119064,266700
2015-09-14,67.279999,67.279999,66.709999,66.720001,62.482250,175300
2015-09-15,67.540001,68.440002,67.370003,68.410004,64.064934,523700
2015-09-16,68.309998,69.160004,67.879997,69.040001,64.654900,213500
2015-09-17,69.150002,69.379997,68.360001,68.419998,64.074272,178500
2015-09-18,67.790001,68.290001,67.000000,67.150002,62.884949,448900
2015-09-21,67.480003,68.339996,67.139999,67.629997,63.334450,193600
2015-09-22,66.879997,67.419998,66.660004,66.739998,62.500977,171700
2015-09-23,66.919998,67.059998,65.839996,66.680000,62.444786,359100
2015-09-24,66.269997,66.269997,65.160004,65.599998,61.433399,275300
2015-09-25,65.690002,65.690002,64.839996,65.529999,61.367844,412100
2015-09-28,65.139999,65.250000,64.099998,64.150002,60.075500,218700
2015-09-29,64.139999,65.000000,63.619999,64.940002,60.815315,445500
2015-09-30,65.510002,66.279999,65.309998,65.959999,61.770542,311400
2015-10-01,65.949997,67.430000,65.790001,67.239998,62.969212,569600
2015-10-02,66.639999,68.000000,66.160004,67.980003,63.662220,216000
2015-10-05,68.430000,69.029999,68.050003,68.410004,64.064934,271600
2015-10-06,68.529999,68.669998,67.610001,67.680000,63.381283,306300
2015-10-07,68.010002,68.730003,67.720001,68.680000,64.317757,222100
2015-10-08,68.760002,69.769997,68.500000,69.629997,65.207436,185000
2015-10-09,69.690002,70.699997,69.690002,70.260002,65.797417,252100
2015-10-12,70.309998,70.639999,69.919998,70.570000,66.087723,235100
2015-10-13,70.400002,70.879997,69.930000,70.160004,65.703758,257900
2015-10-14,70.110001,70.720001,69.570000,69.669998,65.244881,131000
2015-10-15,69.879997,70.110001,68.949997,69.690002,65.263626,236300
2015-10-16,69.690002,69.910004,69.260002,69.839996,65.404083,212500
2015-10-19,69.610001,70.040001,69.540001,69.989998,65.544548,186200
2015-10-20,69.910004,70.820000,69.910004,70.489998,66.012802,220400
2015-10-21,70.529999,70.800003,69.800003,69.870003,65.432190,194700
2015-10-22,70.279999,71.360001,70.209999,71.290001,66.761978,268300
2015-10-23,71.959999,72.169998,71.059998,71.400002,66.865005,256900
2015-10-26,71.300003,71.680000,71.050003,71.300003,66.771362,244900
2015-10-27,71.250000,71.320000,69.629997,70.949997,66.443588,281900
2015-10-28,71.059998,71.849998,70.720001,71.849998,67.286423,319200
2015-10-29,70.230003,72.349998,70.230003,72.339996,67.745293,391400
2015-10-30,71.620003,75.250000,71.620003,73.559998,68.887810,948300
2015-11-02,74.769997,75.879997,73.839996,75.720001,71.201004,432400
2015-11-03,75.779999,75.959999,74.669998,74.760002,70.298302,292000
2015-11-04,74.750000,74.750000,73.050003,73.230003,68.859612,423800
2015-11-05,73.330002,73.790001,72.989998,73.449997,69.066460,225300
2015-11-06,73.480003,73.480003,72.680000,73.260002,68.887833,288400
2015-11-09,73.050003,73.419998,71.820000,72.449997,68.126160,261900
2015-11-10,72.419998,73.040001,71.879997,73.040001,68.680939,293800
2015-11-11,73.320000,73.620003,72.910004,73.059998,68.699745,153800
2015-11-12,72.500000,72.910004,70.769997,70.800003,66.574631,304800
2015-11-13,70.680000,71.699997,70.570000,71.519997,67.251671,539600
2015-11-16,71.870003,72.180000,71.150002,72.099998,67.797043,196700
2015-11-17,72.290001,72.879997,71.790001,71.970001,67.674782,172600
2015-11-18,72.220001,73.510002,71.919998,73.430000,69.047691,181300
2015-11-19,73.320000,73.779999,72.750000,73.680000,69.282745,138600
2015-11-20,73.940002,74.550003,73.720001,74.290001,69.856339,157300
2015-11-23,74.239998,74.519997,73.699997,73.849998,69.442596,239000
2015-11-24,73.410004,74.720001,73.139999,74.279999,69.846931,226100
2015-11-25,74.430000,75.559998,74.220001,74.870003,70.401741,265300
2015-11-27,74.800003,75.360001,74.300003,75.010002,70.533371,65200
2015-11-30,75.169998,75.489998,74.070000,74.480003,70.034988,278700
2015-12-01,74.699997,75.279999,74.570000,74.970001,70.495750,125300
2015-12-02,74.800003,75.269997,73.730003,73.930000,69.517822,156900
2015-12-03,74.309998,74.589996,72.919998,73.459999,69.075882,182700
2015-12-04,73.500000,74.519997,73.500000,74.349998,69.912758,89500
2015-12-07,74.029999,74.599998,73.629997,74.220001,69.790512,242800
2015-12-08,73.500000,74.059998,73.129997,73.599998,69.207520,225000
2015-12-09,73.269997,74.440002,72.849998,73.080002,68.718559,235500
2015-12-10,73.239998,73.699997,72.730003,73.430000,69.047691,175500
2015-12-11,72.720001,73.559998,72.239998,72.860001,68.511696,169300
2015-12-14,72.769997,73.300003,72.400002,72.550003,68.220200,246800
2015-12-15,73.000000,73.410004,72.470001,73.059998,68.699745,185300
2015-12-16,73.360001,73.809998,72.589996,73.449997,69.066460,191200
2015-12-17,73.580002,73.949997,72.260002,72.260002,67.947495,160400
2015-12-18,72.260002,72.260002,71.089996,71.110001,66.866135,809900
2015-12-21,71.480003,71.980003,71.209999,71.660004,67.383308,224100
2015-12-22,71.839996,72.510002,71.400002,72.309998,67.994514,122300
2015-12-23,72.839996,73.519997,72.449997,73.459999,69.075882,216500
2015-12-24,73.230003,73.639999,72.760002,73.300003,68.925430,78800
2015-12-28,72.980003,73.940002,72.910004,73.709999,69.310959,137500
2015-12-29,74.000000,74.470001,73.599998,74.040001,69.621277,80800
2015-12-30,73.900002,74.320000,73.000000,73.620003,69.226334,100800
2015-12-31,73.269997,73.940002,72.620003,72.650002,68.314224,157800
2016-01-04,72.000000,72.209999,71.230003,72.080002,67.778236,288300
2016-01-05,72.080002,72.080002,71.010002,71.669998,67.392700,323800
2016-01-06,70.699997,71.589996,70.360001,71.180000,66.931953,389900
2016-01-07,70.019997,70.709999,69.599998,69.760002,65.596687,321200
2016-01-08,69.959999,70.629997,69.669998,69.879997,65.709549,565000
2016-01-11,69.930000,70.360001,69.070000,69.820000,65.653107,312000
2016-01-12,70.309998,70.919998,69.330002,69.839996,65.671913,286700
2016-01-13,70.129997,70.830002,68.889999,68.910004,64.797424,379900
2016-01-14,69.099998,69.180000,68.129997,68.750000,64.646973,439100
2016-01-15,67.519997,68.260002,67.000000,68.070000,64.007538,344200
2016-01-19,68.849998,68.849998,67.300003,68.120003,64.054581,221800
2016-01-20,67.349998,68.410004,66.330002,67.830002,63.781887,252300
2016-01-21,67.900002,68.339996,66.690002,66.699997,62.719315,323100
2016-01-22,67.480003,68.320000,67.190002,68.250000,64.176811,252600
2016-01-25,67.669998,67.760002,66.639999,66.860001,63.147335,330300
2016-01-26,67.639999,70.620003,67.570000,70.489998,66.575760,582200
2016-01-27,70.239998,71.650002,69.720001,70.250000,66.349098,491100
2016-01-28,70.820000,71.320000,70.410004,70.669998,66.745773,420800
2016-01-29,70.860001,72.910004,70.860001,72.900002,68.851959,796100
2016-02-01,72.290001,72.690002,71.589996,72.309998,68.294701,284400
2016-02-02,71.480003,71.790001,70.800003,71.320000,67.359680,325700
2016-02-03,71.809998,73.169998,70.580002,73.150002,69.088058,433000
2016-02-04,73.010002,73.720001,71.879997,72.239998,68.228592,365600
2016-02-05,72.980003,74.660004,70.480003,71.120003,67.170784,281400
2016-02-08,70.559998,73.059998,69.879997,73.029999,68.974716,521700
2016-02-09,72.489998,75.269997,72.300003,74.410004,70.278091,581100
2016-02-10,74.680000,75.529999,73.449997,74.190002,70.070320,362700
2016-02-11,73.190002,75.019997,73.190002,74.320000,70.193077,526900
2016-02-12,74.820000,75.650002,73.699997,75.300003,71.118683,306400
2016-02-16,76.050003,76.190002,73.470001,73.949997,69.843651,386700
2016-02-17,74.250000,74.669998,73.169998,73.370003,69.295845,374100
2016-02-18,73.500000,73.750000,72.980003,73.300003,69.229736,260400
2016-02-19,73.300003,73.760002,71.559998,72.879997,68.833054,700700
2016-02-22,73.470001,73.879997,72.440002,72.800003,68.757500,387400
2016-02-23,72.849998,73.019997,72.050003,72.870003,68.823608,264900
2016-02-24,72.419998,74.120003,72.220001,73.910004,69.805862,220200
2016-02-25,74.000000,74.389999,73.480003,74.339996,70.211967,208700
2016-02-26,74.779999,74.949997,73.309998,73.330002,69.258072,159400
2016-02-29,73.500000,74.379997,72.980003,73.709999,69.616959,211600
2016-03-01,74.040001,75.080002,73.750000,74.500000,70.363106,233000
2016-03-02,74.389999,74.830002,73.820000,74.410004,70.278091,154800
2016-03-03,74.349998,75.250000,73.809998,75.199997,71.024223,354300
2016-03-04,75.199997,76.099998,75.139999,76.000000,71.779808,299600
2016-03-07,75.870003,76.419998,75.089996,75.720001,71.515366,216100
2016-03-08,75.720001,76.129997,75.120003,75.790001,71.581474,236800
2016-03-09,75.949997,76.529999,75.099998,75.849998,71.638145,313200
2016-03-10,76.279999,76.809998,75.129997,75.370003,71.184784,266300
2016-03-11,75.510002,76.199997,75.510002,75.779999,71.572037,239200
2016-03-14,75.779999,76.199997,74.879997,75.239998,71.062012,286000
2016-03-15,74.779999,76.500000,74.040001,76.160004,71.930931,365100
2016-03-16,75.779999,76.830002,75.529999,76.550003,72.299248,188200
2016-03-17,76.839996,77.760002,76.510002,77.260002,72.969856,304300
2016-03-18,76.949997,77.580002,76.169998,76.889999,72.620384,611700
2016-03-21,76.989998,77.989998,76.820000,77.379997,73.083168,212000
2016-03-22,77.000000,78.419998,76.639999,78.070000,73.734871,241500
2016-03-23,77.959999,78.889999,76.989998,78.139999,73.800972,253200
2016-03-24,77.930000,77.989998,76.860001,77.389999,73.092613,207600
2016-03-28,77.680000,78.370003,77.449997,78.309998,73.961533,320300
2016-03-29,77.940002,78.709999,77.379997,78.510002,74.150421,624100
2016-03-30,78.779999,79.040001,78.059998,78.730003,74.358208,294200
2016-03-31,78.830002,79.019997,78.199997,78.410004,74.055992,373200
2016-04-01,78.029999,79.160004,77.820000,79.089996,74.698219,193900
2016-04-04,79.230003,79.669998,78.709999,78.910004,74.528229,177000
2016-04-05,78.320000,78.779999,77.500000,77.739998,73.423195,218700
2016-04-06,77.739998,78.190002,76.660004,77.980003,73.649857,250300
2016-04-07,77.639999,77.639999,76.860001,77.349998,73.054848,219100
2016-04-08,77.849998,77.849998,77.040001,77.360001,73.064293,178600
2016-04-11,77.970001,78.169998,77.160004,77.360001,73.064293,171700
2016-04-12,77.470001,77.699997,76.970001,77.589996,73.281517,201000
2016-04-13,78.029999,78.230003,76.870003,78.190002,73.848190,172400
2016-04-14,78.360001,78.570000,77.980003,78.449997,74.093750,211900
2016-04-15,78.419998,79.300003,78.160004,79.250000,74.849335,246900
2016-04-18,79.000000,79.660004,78.930000,79.629997,75.208221,221100
2016-04-19,79.900002,80.320000,79.260002,79.449997,75.038231,304700
2016-04-20,79.720001,79.930000,79.160004,79.769997,75.340454,188500
2016-04-21,79.610001,80.029999,78.430000,78.580002,74.216553,218600
2016-04-22,78.620003,79.790001,78.620003,79.680000,75.255470,238600
2016-04-25,78.940002,79.419998,78.750000,79.019997,74.914154,266800
2016-04-26,79.320000,80.000000,78.739998,79.930000,75.776878,234400
2016-04-27,79.889999,80.360001,79.540001,79.959999,75.805321,303200
2016-04-28,79.750000,80.320000,79.000000,79.290001,75.170135,575500
2016-04-29,77.220001,77.959999,75.709999,76.000000,72.051086,777800
2016-05-02,75.779999,77.330002,75.650002,76.849998,72.856918,478800
2016-05-03,76.389999,76.500000,75.599998,75.750000,71.814056,836200
2016-05-04,75.250000,75.900002,75.010002,75.559998,71.633949,574200
2016-05-05,75.540001,76.480003,75.120003,76.059998,72.107956,307100
2016-05-06,76.000000,76.550003,75.720001,76.279999,72.316536,222400
2016-05-09,76.169998,76.820000,75.660004,76.550003,72.572495,365700
2016-05-10,76.730003,77.300003,76.309998,77.080002,73.074959,196600
2016-05-11,77.070000,77.669998,76.680000,76.830002,72.837967,251800
2016-05-12,77.320000,77.980003,77.080002,77.629997,73.596375,219900
2016-05-13,77.339996,77.339996,76.510002,76.970001,72.970680,202900
2016-05-16,77.080002,77.790001,76.629997,77.400002,73.378342,169500
2016-05-17,77.260002,77.419998,75.239998,75.400002,71.482269,446800
2016-05-18,75.120003,76.089996,74.830002,75.250000,71.340050,337400
2016-05-19,74.760002,75.480003,74.160004,74.849998,70.960838,253100
2016-05-20,75.309998,75.779999,74.970001,75.330002,71.415901,301700
2016-05-23,75.489998,75.629997,74.730003,74.790001,70.903954,220500
2016-05-24,75.239998,76.559998,75.150002,76.379997,72.411339,257900
2016-05-25,76.349998,76.860001,76.080002,76.349998,72.382881,173400
2016-05-26,76.519997,76.760002,75.959999,76.430000,72.458733,140300
2016-05-27,76.519997,77.190002,76.180000,77.139999,73.131851,246300
2016-05-31,77.220001,77.540001,76.830002,77.260002,73.245636,267700
2016-06-01,76.860001,77.209999,76.070000,77.209999,73.198212,194600
2016-06-02,77.150002,77.349998,76.790001,77.349998,73.330956,222600
2016-06-03,77.570000,77.790001,76.940002,77.199997,73.188721,145100
2016-06-06,77.309998,78.029999,76.790001,77.089996,73.084442,184800
2016-06-07,77.029999,77.910004,77.029999,77.489998,73.463661,170000
2016-06-08,77.589996,78.550003,77.120003,77.720001,73.681709,128100
2016-06-09,77.400002,77.870003,77.180000,77.790001,73.748070,123400
2016-06-10,77.400002,78.199997,77.400002,78.199997,74.136765,274700
2016-06-13,77.750000,78.080002,76.620003,76.779999,72.790558,261800
2016-06-14,76.830002,76.959999,76.099998,76.440002,72.468231,246100
2016-06-15,76.500000,76.959999,76.059998,76.320000,72.354446,213300
2016-06-16,76.059998,76.940002,75.660004,76.500000,72.525108,285400
2016-06-17,76.220001,76.599998,75.790001,76.349998,72.382881,351300
2016-06-20,77.180000,77.980003,77.180000,77.620003,73.586914,140800
2016-06-21,77.620003,78.220001,77.470001,77.680000,73.643799,213400
2016-06-22,77.910004,78.309998,77.620003,78.309998,74.241051,162800
2016-06-23,79.080002,80.139999,79.080002,80.139999,75.975960,368500
2016-06-24,77.199997,78.099998,76.540001,76.750000,72.762123,461600
2016-06-27,75.930000,75.970001,74.269997,74.599998,70.723824,327800
2016-06-28,74.900002,75.690002,74.529999,75.690002,71.757202,216300
2016-06-29,76.550003,76.949997,75.949997,76.720001,72.733681,198000
2016-06-30,76.959999,79.150002,76.760002,79.129997,75.018448,395900
2016-07-01,78.989998,79.730003,78.500000,79.169998,75.056366,169300
2016-07-05,78.849998,79.099998,77.800003,78.720001,74.629753,207000
2016-07-06,78.660004,78.820000,77.970001,78.739998,74.648712,192300
2016-07-07,78.889999,79.330002,78.279999,78.489998,74.411697,155400
2016-07-08,79.269997,79.849998,79.099998,79.790001,75.644157,132300
2016-07-11,80.080002,80.470001,79.879997,80.199997,76.032860,144500
2016-07-12,80.750000,81.169998,80.360001,80.410004,76.231941,143800
2016-07-13,80.769997,80.919998,80.080002,80.230003,76.061295,188000
2016-07-14,80.800003,81.000000,79.860001,80.190002,76.023384,134100
2016-07-15,80.110001,80.629997,79.919998,79.919998,75.767380,164500
2016-07-18,79.919998,80.540001,79.580002,79.910004,75.757919,93400
2016-07-19,79.860001,80.089996,79.220001,79.620003,75.482986,87100
2016-07-20,79.559998,80.720001,79.559998,80.300003,76.127670,191200
2016-07-21,80.059998,80.570000,79.730003,79.940002,75.786354,132500
2016-07-22,79.919998,80.790001,79.910004,80.459999,76.279335,140900
2016-07-25,80.040001,80.400002,79.800003,79.949997,76.079506,235000
2016-07-26,79.879997,80.720001,79.879997,80.300003,76.412575,185200
2016-07-27,80.739998,80.739998,79.279999,79.720001,75.860641,321300
2016-07-28,79.709999,79.989998,78.970001,79.379997,75.537094,239100
2016-07-29,79.919998,81.500000,77.110001,78.180000,74.395195,730500
2016-08-01,78.139999,78.139999,77.000000,77.339996,73.595863,302600
2016-08-02,77.230003,77.230003,75.940002,76.610001,72.901207,406600
2016-08-03,76.709999,76.970001,76.250000,76.620003,72.910721,213500
2016-08-04,76.739998,77.489998,76.540001,76.779999,73.062973,171800
2016-08-05,77.300003,77.320000,76.449997,76.589996,72.882179,217700
2016-08-08,76.709999,77.589996,75.989998,76.169998,72.482506,185000
2016-08-09,76.260002,76.599998,75.720001,75.980003,72.301704,153000
2016-08-10,76.070000,76.330002,75.839996,76.220001,72.530083,133000
2016-08-11,76.580002,76.860001,75.870003,76.099998,72.415886,193300
2016-08-12,75.989998,76.099998,75.349998,75.580002,71.921074,99200
2016-08-15,75.870003,76.080002,75.480003,75.500000,71.844933,103000
2016-08-16,75.589996,75.639999,75.080002,75.160004,71.521400,186000
2016-08-17,75.220001,75.820000,75.010002,75.790001,72.120903,179400
2016-08-18,75.800003,76.830002,75.620003,76.830002,73.110565,220900
2016-08-19,76.459999,76.989998,76.239998,76.779999,73.062973,209400
2016-08-22,76.769997,77.220001,76.400002,77.099998,73.367470,144600
2016-08-23,77.410004,77.930000,77.269997,77.339996,73.595863,312400
2016-08-24,77.220001,77.739998,77.220001,77.580002,73.824249,185900
2016-08-25,77.430000,78.540001,77.430000,78.070000,74.290527,219500
2016-08-26,78.050003,79.070000,78.050003,78.470001,74.671143,376200
2016-08-29,78.500000,79.059998,78.500000,78.779999,74.966148,163400
2016-08-30,78.779999,79.120003,78.589996,78.690002,74.880508,198900
2016-08-31,78.540001,78.790001,77.959999,77.980003,74.204872,279700
2016-09-01,78.120003,78.300003,77.489998,77.970001,74.195366,209800
2016-09-02,78.470001,79.180000,78.099998,79.160004,75.327744,253000
2016-09-06,79.440002,79.809998,78.919998,79.459999,75.613228,237300
2016-09-07,79.180000,80.370003,79.180000,80.290001,76.403038,316100
2016-09-08,80.519997,80.550003,79.169998,79.209999,75.375343,281300
2016-09-09,78.900002,78.900002,77.430000,77.459999,73.710060,327000
2016-09-12,77.000000,78.559998,77.000000,78.510002,74.709213,182000
2016-09-13,78.080002,78.370003,77.139999,77.540001,73.786179,246800
2016-09-14,77.489998,77.760002,77.059998,77.370003,73.624428,150000
2016-09-15,77.300003,77.989998,77.260002,77.900002,74.128754,162600
2016-09-16,77.360001,78.010002,77.360001,77.599998,73.843269,310300
2016-09-19,77.900002,78.800003,77.889999,78.610001,74.804390,233200
2016-09-20,79.099998,79.410004,78.699997,78.720001,74.909058,281000
2016-09-21,78.809998,78.809998,77.839996,78.419998,74.623573,413200
2016-09-22,79.059998,79.510002,78.360001,79.459999,75.613228,281200
2016-09-23,79.169998,79.489998,78.610001,78.790001,74.975655,157100
2016-09-26,78.690002,78.970001,78.029999,78.059998,74.280998,289000
2016-09-27,77.360001,78.139999,77.360001,77.739998,73.976509,631400
2016-09-28,78.360001,78.650002,77.610001,78.610001,74.804390,211900
2016-09-29,78.279999,78.570000,77.080002,77.209999,73.472160,175600
2016-09-30,77.360001,77.919998,76.970001,77.410004,73.662476,407300
2016-10-03,77.070000,77.440002,76.599998,77.360001,73.614891,301500
2016-10-04,77.239998,77.680000,76.000000,76.099998,72.415886,242700
2016-10-05,76.459999,76.589996,75.930000,76.110001,72.425400,189300
2016-10-06,76.099998,76.669998,75.760002,76.639999,72.929733,153500
2016-10-07,76.660004,76.669998,75.190002,75.639999,71.978165,279500
2016-10-10,76.040001,76.519997,75.680000,75.949997,72.273148,116400
2016-10-11,75.620003,75.720001,74.550003,75.070000,71.435760,152700
2016-10-12,75.559998,75.809998,75.110001,75.660004,71.997200,140900
2016-10-13,74.779999,76.199997,74.580002,75.589996,71.930580,211200
2016-10-14,75.620003,76.320000,75.570000,76.029999,72.349289,176800
2016-10-17,76.019997,76.470001,76.010002,76.199997,72.511055,80900
2016-10-18,76.779999,77.000000,75.980003,76.389999,72.691864,112900
2016-10-19,76.279999,76.779999,76.040001,76.480003,72.777496,97900
2016-10-20,76.120003,76.800003,75.389999,75.970001,72.292183,219300
2016-10-21,76.230003,77.410004,75.870003,77.160004,73.424576,184300
2016-10-24,78.099998,78.099998,76.550003,77.000000,73.272316,150800
2016-10-25,77.000000,77.139999,76.190002,77.000000,73.272316,187000
2016-10-26,76.820000,77.190002,76.199997,76.269997,72.577667,179200
2016-10-27,76.389999,76.389999,75.610001,76.279999,72.587181,174600
2016-10-28,75.110001,75.989998,72.580002,73.019997,69.485008,464700
2016-10-31,72.930000,73.889999,70.879997,71.440002,68.280731,644800
2016-11-01,71.809998,71.849998,70.320000,70.620003,67.496986,345000
2016-11-02,70.580002,71.540001,70.430000,70.919998,67.783707,267400
2016-11-03,70.849998,71.459999,70.639999,70.870003,67.735916,218400
2016-11-04,71.110001,71.900002,70.980003,71.410004,68.252045,235500
2016-11-07,72.570000,74.349998,72.290001,74.330002,71.042923,458400
2016-11-08,74.279999,76.070000,74.050003,75.739998,72.390564,506700
2016-11-09,74.910004,76.070000,74.529999,75.110001,71.788429,313100
2016-11-10,75.599998,75.599998,71.269997,71.430000,68.271164,636100
2016-11-11,71.360001,72.129997,70.750000,71.849998,68.672592,316900
2016-11-14,72.290001,73.540001,72.290001,73.510002,70.259171,308000
2016-11-15,73.480003,73.800003,72.989998,73.379997,70.134926,190100
2016-11-16,73.629997,73.720001,72.910004,73.570000,70.316521,205000
2016-11-17,73.580002,74.260002,72.800003,73.580002,70.326073,207500
2016-11-18,73.419998,73.760002,72.870003,73.650002,70.392975,229800
2016-11-21,73.699997,74.260002,73.339996,74.239998,70.956894,182500
2016-11-22,74.599998,75.650002,73.959999,75.489998,72.151604,452400
2016-11-23,75.169998,76.250000,75.169998,76.050003,72.686867,193800
2016-11-25,76.040001,76.660004,75.750000,76.070000,72.705963,123600
2016-11-28,76.099998,77.279999,76.019997,76.470001,73.088272,346700
2016-11-29,76.550003,76.860001,74.800003,75.680000,72.333214,327500
2016-11-30,76.019997,76.050003,73.169998,73.180000,69.943764,322800
2016-12-01,73.199997,74.339996,72.459999,74.080002,70.803970,467500
2016-12-02,74.050003,74.550003,73.599998,74.349998,71.062042,388100
2016-12-05,74.839996,75.129997,73.160004,73.379997,70.134926,351000
2016-12-06,73.309998,73.860001,73.099998,73.800003,70.536369,356700
2016-12-07,71.839996,73.919998,71.839996,73.480003,70.230515,579300
2016-12-08,73.489998,74.589996,73.489998,74.199997,70.918663,408300
2016-12-09,74.610001,75.180000,74.279999,74.750000,71.444344,389200
2016-12-12,74.849998,75.150002,74.150002,74.610001,71.310532,276800
2016-12-13,74.900002,75.599998,74.309998,74.370003,71.081154,270700
2016-12-14,74.570000,74.970001,72.959999,73.050003,69.819527,343900
2016-12-15,73.320000,73.720001,72.830002,72.959999,69.733513,346100
2016-12-16,73.220001,73.400002,72.730003,72.930000,69.704819,665800
2016-12-19,73.190002,74.029999,72.779999,73.800003,70.536369,280500
2016-12-20,73.650002,74.059998,73.400002,73.980003,70.708397,269400
2016-12-21,73.870003,74.160004,73.339996,73.360001,70.115807,280600
2016-12-22,73.500000,73.500000,72.580002,73.019997,69.790855,291800
2016-12-23,72.860001,73.930000,72.860001,73.610001,70.354759,161500
2016-12-27,73.809998,74.570000,73.449997,74.169998,70.889992,201800
2016-12-28,74.050003,74.690002,73.570000,73.720001,70.459908,191000
2016-12-29,73.639999,74.120003,73.320000,73.690002,70.431221,139400
2016-12-30,73.730003,74.019997,73.250000,73.449997,70.201828,240200
2017-01-03,74.260002,74.260002,72.349998,73.019997,69.790855,336300
2017-01-04,72.919998,74.720001,72.919998,74.230003,70.947342,418800
2017-01-05,73.720001,74.410004,73.230003,73.470001,70.220955,356400
2017-01-06,73.529999,73.970001,73.070000,73.500000,70.249626,282800
2017-01-09,73.500000,74.410004,73.080002,73.680000,70.421669,374100
2017-01-10,73.330002,73.589996,72.800003,72.820000,69.599693,161500
2017-01-11,73.029999,73.360001,72.779999,73.040001,69.809952,193100
2017-01-12,73.150002,73.760002,72.360001,73.330002,70.087143,184300
2017-01-13,73.309998,73.820000,73.029999,73.500000,70.249626,188900
2017-01-17,72.879997,73.830002,72.860001,73.339996,70.096710,270200
2017-01-18,73.419998,73.800003,73.019997,73.480003,70.230515,261000
2017-01-19,73.639999,73.690002,72.459999,72.730003,69.513672,374700
2017-01-20,72.370003,72.510002,71.550003,71.639999,68.471870,347300
2017-01-23,71.879997,72.529999,71.440002,72.449997,69.246048,384600
2017-01-24,72.790001,73.849998,72.790001,73.540001,70.287865,266000
2017-01-25,73.360001,73.940002,73.139999,73.430000,70.182732,267000
2017-01-26,73.389999,73.680000,72.459999,73.320000,70.077583,275500
2017-01-27,73.400002,73.489998,72.910004,73.440002,70.192284,320400
2017-01-30,73.070000,73.440002,72.099998,72.739998,69.827499,342000
2017-01-31,72.870003,73.309998,72.290001,72.970001,70.048286,669400
2017-02-01,73.290001,74.050003,73.050003,73.940002,70.979446,446900
2017-02-02,73.800003,73.800003,73.010002,73.330002,70.393867,325700
2017-02-03,73.769997,74.129997,73.500000,73.779999,70.825859,278200
2017-02-06,73.529999,74.019997,73.120003,73.349998,70.413071,254500
2017-02-07,73.339996,73.470001,72.650002,72.730003,69.817886,360800
2017-02-08,72.620003,73.699997,72.440002,73.550003,70.605049,397300
2017-02-09,73.370003,73.940002,73.160004,73.570000,70.624245,438000
2017-02-10,74.209999,76.199997,74.209999,74.790001,71.795410,1160100
2017-02-13,75.220001,75.440002,74.360001,74.430000,71.449806,440000
2017-02-14,74.400002,74.400002,73.720001,73.830002,70.873840,432000
2017-02-15,73.830002,73.919998,72.860001,73.199997,70.269066,522800
2017-02-16,73.400002,74.230003,73.400002,74.199997,71.229027,267000
2017-02-17,74.419998,74.550003,73.470001,73.900002,70.941048,318600
2017-02-21,73.910004,74.660004,73.860001,74.589996,71.603409,188600
2017-02-22,74.339996,74.809998,73.940002,74.260002,71.286644,204500
2017-02-23,74.470001,74.559998,74.040001,74.120003,71.152222,250600
2017-02-24,73.779999,74.489998,73.639999,74.360001,71.382622,232400
2017-02-27,74.099998,75.019997,74.099998,74.480003,71.497818,251800
2017-02-28,74.269997,74.650002,73.949997,74.510002,71.526611,390200
2017-03-01,75.209999,76.169998,74.919998,76.059998,73.014557,371000
2017-03-02,75.690002,76.070000,75.459999,75.809998,72.774559,327700
2017-03-03,75.529999,76.239998,75.529999,76.040001,72.995354,298400
2017-03-06,75.470001,76.089996,75.470001,75.650002,72.620979,302100
2017-03-07,75.540001,75.940002,75.180000,75.470001,72.448166,452700
2017-03-08,75.279999,76.059998,75.279999,75.940002,72.899361,435600
2017-03-09,75.879997,76.480003,75.589996,75.849998,72.812958,341200
2017-03-10,76.120003,77.000000,75.800003,76.790001,73.715324,435400
2017-03-13,76.800003,77.000000,76.160004,76.750000,73.676926,221900
2017-03-14,75.629997,77.019997,75.349998,76.529999,73.465721,265900
2017-03-15,76.919998,77.690002,76.830002,77.239998,74.147308,225600
2017-03-16,77.300003,77.529999,76.690002,76.980003,73.897720,186200
2017-03-17,76.900002,77.239998,76.589996,77.080002,73.993721,405100
2017-03-20,77.169998,77.870003,76.750000,77.839996,74.723282,247300
2017-03-21,77.720001,77.830002,76.629997,76.769997,73.696114,321300
2017-03-22,76.660004,77.080002,76.510002,76.849998,73.772934,130100
2017-03-23,76.830002,77.739998,76.320000,77.160004,74.070518,136400
2017-03-24,77.190002,77.650002,76.330002,76.620003,73.552132,154300
2017-03-27,75.809998,76.760002,75.809998,76.620003,73.552132,256200
2017-03-28,76.410004,77.279999,76.330002,77.070000,73.984108,237700
2017-03-29,77.110001,77.110001,76.489998,77.040001,73.955315,129300
2017-03-30,76.989998,77.379997,76.559998,76.860001,73.782524,141800
2017-03-31,76.900002,77.279999,76.419998,76.989998,73.907326,197200
2017-04-03,76.940002,77.459999,76.209999,76.449997,73.388939,424900
2017-04-04,76.500000,76.900002,75.949997,76.739998,73.667320,318700
2017-04-05,77.040001,77.040001,76.019997,76.080002,73.033760,372800
2017-04-06,75.940002,76.540001,75.489998,76.529999,73.465721,293700
2017-04-07,76.489998,76.790001,76.019997,76.160004,73.110565,214800
2017-04-10,75.940002,76.949997,75.919998,76.889999,73.811317,242100
2017-04-11,76.599998,76.970001,76.419998,76.919998,73.840118,263700
2017-04-12,76.889999,76.919998,76.040001,76.230003,73.177750,236800
2017-04-13,76.050003,76.589996,75.760002,75.800003,72.764977,164800
2017-04-17,76.029999,77.300003,75.879997,77.269997,74.176109,220500
2017-04-18,77.040001,77.680000,76.940002,77.570000,74.464111,196800
2017-04-19,77.870003,77.930000,77.510002,77.550003,74.444901,264800
2017-04-20,76.949997,78.320000,76.949997,77.820000,74.704094,354300
2017-04-21,78.180000,78.639999,77.099998,77.989998,74.867256,185200
2017-04-24,78.970001,78.970001,77.720001,78.300003,75.164871,250700
2017-04-25,78.349998,79.169998,77.620003,78.730003,75.577660,290500
2017-04-26,78.919998,79.500000,78.690002,79.339996,76.163216,343000
2017-04-27,79.199997,79.599998,78.430000,78.790001,75.635246,237600
2017-04-28,80.000000,80.529999,78.760002,80.300003,77.084785,637700
2017-05-01,80.080002,80.599998,79.209999,79.730003,76.843842,974600
2017-05-02,79.349998,80.680000,78.889999,80.199997,77.296814,450100
2017-05-03,79.889999,80.660004,79.500000,80.449997,77.537758,384500
2017-05-04,80.500000,81.720001,80.500000,81.389999,78.443733,488800
2017-05-05,81.400002,82.169998,81.320000,81.910004,78.944939,413400
2017-05-08,82.080002,82.610001,81.720001,82.510002,79.523209,374100
2017-05-09,82.610001,82.940002,82.110001,82.480003,79.494301,302600
2017-05-10,82.250000,83.040001,82.250000,82.870003,79.870163,308100
2017-05-11,82.489998,82.919998,81.820000,82.529999,79.542480,311500
2017-05-12,82.449997,82.820000,82.239998,82.430000,79.446091,227600
2017-05-15,82.430000,82.980003,82.190002,82.629997,79.638863,211900
2017-05-16,82.580002,82.800003,82.230003,82.790001,79.793068,210700
2017-05-17,82.790001,82.790001,81.849998,82.279999,79.301529,266100
2017-05-18,82.250000,82.400002,81.120003,82.139999,79.166580,325700
2017-05-19,82.190002,82.510002,81.820000,82.360001,79.378632,331900
2017-05-22,82.250000,82.980003,82.050003,82.839996,79.841255,238500
2017-05-23,83.000000,83.660004,82.970001,83.190002,80.178596,204100
2017-05-24,83.190002,83.519997,82.800003,83.389999,80.371346,187400
2017-05-25,83.620003,84.279999,83.260002,84.150002,81.103844,203200
2017-05-26,84.150002,84.629997,84.059998,84.370003,81.315872,158300
2017-05-30,84.129997,84.639999,83.800003,84.540001,81.479698,224400
2017-05-31,85.180000,85.180000,84.419998,85.010002,81.932701,285400
2017-06-01,85.250000,86.309998,85.010002,86.260002,83.137459,272600
2017-06-02,86.400002,86.730003,85.730003,86.330002,83.204910,170700
2017-06-05,86.099998,87.089996,85.779999,85.849998,82.742302,237600
2017-06-06,85.830002,85.830002,85.059998,85.480003,82.385689,342600
2017-06-07,85.110001,85.919998,85.059998,85.690002,82.588089,366600
2017-06-08,85.779999,85.989998,84.860001,85.250000,82.164024,185000
2017-06-09,85.300003,85.800003,85.180000,85.650002,82.549545,189800
2017-06-12,85.239998,85.980003,84.870003,85.440002,82.347137,239000
2017-06-13,85.860001,86.180000,85.480003,86.180000,83.060356,178500
2017-06-14,86.040001,86.769997,86.040001,86.250000,83.127831,212300
2017-06-15,85.519997,86.290001,84.900002,86.230003,83.108551,200000
2017-06-16,86.000000,86.360001,85.449997,85.949997,82.838669,450200
2017-06-19,86.320000,86.870003,85.930000,86.750000,83.609711,166600
2017-06-20,86.949997,87.180000,86.650002,86.889999,83.744659,240200
2017-06-21,86.919998,87.940002,86.550003,87.000000,83.850655,185800
2017-06-22,86.959999,87.360001,86.410004,86.820000,83.677170,166200
2017-06-23,86.830002,87.680000,86.330002,86.800003,83.657890,474300
2017-06-26,86.970001,87.589996,86.610001,87.139999,83.985603,307000
2017-06-27,87.000000,87.510002,86.339996,86.370003,83.243469,187900
2017-06-28,86.959999,87.370003,86.269997,86.930000,83.783195,169600
2017-06-29,86.870003,87.129997,85.779999,86.489998,83.359116,196100
2017-06-30,86.930000,87.330002,86.769997,86.860001,83.715736,238500
2017-07-03,87.209999,87.669998,86.889999,87.080002,83.927780,118800
2017-07-05,86.949997,87.500000,86.440002,87.290001,84.130173,243900
2017-07-06,86.830002,87.739998,86.690002,87.309998,84.149437,393900
2017-07-07,87.690002,88.550003,87.139999,88.089996,84.901215,245200
2017-07-10,87.949997,89.070000,87.480003,88.300003,85.103607,246000
2017-07-11,88.190002,88.580002,87.750000,88.169998,84.978310,180700
2017-07-12,88.860001,89.320000,88.430000,88.980003,85.758995,142400
2017-07-13,89.070000,89.269997,87.790001,88.629997,85.421654,278600
2017-07-14,89.120003,89.970001,88.919998,89.430000,86.192711,305900
2017-07-17,89.500000,89.970001,89.230003,89.790001,86.539665,299300
2017-07-18,89.400002,90.410004,89.080002,89.739998,86.491478,278500
2017-07-19,90.320000,90.790001,89.680000,90.089996,86.828812,395300
2017-07-20,90.269997,90.480003,89.529999,89.699997,86.452919,323100
2017-07-21,89.989998,89.989998,89.000000,89.510002,86.269814,271500
2017-07-24,88.940002,89.589996,88.589996,89.459999,86.530968,390200
2017-07-25,89.959999,89.959999,88.519997,88.690002,85.786179,596900
2017-07-26,88.779999,88.970001,87.989998,88.059998,85.176796,317800
2017-07-27,88.500000,88.500000,87.260002,88.000000,85.118767,328900
2017-07-28,83.400002,83.699997,80.830002,82.309998,79.615074,915000
2017-07-31,82.239998,83.500000,80.690002,80.930000,78.280251,962700
2017-08-01,81.000000,82.790001,80.980003,82.510002,79.808525,463400
2017-08-02,82.540001,82.750000,81.230003,82.250000,79.557037,348600
2017-08-03,82.300003,82.419998,81.820000,82.250000,79.557037,322100
2017-08-04,82.500000,82.779999,82.169998,82.360001,79.663429,168100
2017-08-07,82.550003,82.949997,82.389999,82.739998,80.030998,171600
2017-08-08,82.629997,82.930000,82.400002,82.739998,80.030998,163300
2017-08-09,82.500000,82.800003,82.239998,82.480003,79.779510,188900
2017-08-10,82.230003,82.739998,81.480003,81.510002,78.841255,265100
2017-08-11,82.349998,82.349998,81.410004,82.139999,79.450623,214100
2017-08-14,82.629997,83.000000,82.510002,82.910004,80.195419,147300
2017-08-15,82.739998,83.000000,82.550003,82.750000,80.040665,190900
2017-08-16,82.860001,83.830002,82.699997,83.550003,80.814476,248800
2017-08-17,83.269997,83.519997,82.120003,82.129997,79.440956,221700
2017-08-18,82.010002,82.300003,81.639999,82.150002,79.460304,191000
2017-08-21,82.059998,82.480003,81.339996,81.489998,78.821922,126300
2017-08-22,81.980003,82.290001,81.730003,82.120003,79.431282,190100
2017-08-23,81.750000,82.529999,81.489998,81.610001,78.937988,180500
2017-08-24,81.730003,82.059998,80.949997,81.080002,78.425346,180000
2017-08-25,81.500000,82.730003,81.500000,82.389999,79.692451,330100
2017-08-28,82.650002,82.779999,81.489998,81.860001,79.179787,241600
2017-08-29,81.900002,82.099998,81.570000,82.000000,79.315216,226300
2017-08-30,82.139999,83.180000,81.900002,82.970001,80.253456,207600
2017-08-31,83.180000,83.660004,82.720001,83.610001,80.872498,266700
2017-09-01,83.800003,84.000000,83.419998,83.879997,81.133659,183000
2017-09-05,83.720001,84.169998,83.180000,83.250000,80.524300,191900
2017-09-06,83.330002,83.330002,82.489998,82.849998,80.137398,240900
2017-09-07,82.959999,83.739998,82.320000,83.610001,80.872498,241000
2017-09-08,83.500000,84.180000,82.769997,83.820000,81.075630,207600
2017-09-11,84.320000,85.169998,84.000000,85.120003,82.333069,209800
2017-09-12,84.930000,85.440002,84.709999,85.199997,82.410446,214500
2017-09-13,84.610001,85.040001,84.370003,84.500000,81.733368,229000
2017-09-14,84.510002,85.099998,84.160004,84.870003,82.091255,166300
2017-09-15,84.739998,84.949997,84.480003,84.709999,81.936485,399800
2017-09-18,84.970001,85.669998,84.739998,85.440002,82.642586,198600
2017-09-19,85.430000,85.760002,84.949997,85.559998,82.758659,260300
2017-09-20,85.660004,86.239998,85.639999,86.120003,83.300331,167200
2017-09-21,86.080002,86.760002,85.870003,86.150002,83.329338,199600
2017-09-22,86.199997,86.269997,85.449997,85.720001,82.913414,189400
2017-09-25,85.750000,86.889999,85.349998,86.760002,83.919365,222800
2017-09-26,87.099998,87.320000,86.449997,86.750000,83.909691,199700
2017-09-27,86.800003,86.930000,86.209999,86.540001,83.706581,272900
2017-09-28,86.360001,87.510002,86.089996,87.080002,84.228897,228200
2017-09-29,87.019997,87.129997,86.300003,86.309998,83.484093,220700
2017-10-02,86.809998,87.970001,86.540001,87.879997,85.002708,264000
2017-10-03,87.900002,88.440002,87.900002,88.430000,85.534691,202100
2017-10-04,88.260002,88.849998,87.919998,88.139999,85.254181,231600
2017-10-05,88.510002,88.730003,87.620003,88.139999,85.254181,178900
2017-10-06,88.040001,88.629997,87.900002,88.580002,85.679771,162800
2017-10-09,88.680000,88.790001,88.330002,88.459999,85.563705,139400
2017-10-10,88.599998,88.870003,88.220001,88.470001,85.573380,186700
2017-10-11,88.480003,88.800003,88.190002,88.360001,85.466988,162500
2017-10-12,88.500000,88.709999,88.220001,88.489998,85.592735,168000
2017-10-13,88.690002,89.370003,88.690002,88.839996,85.931267,187100
2017-10-16,88.919998,88.940002,87.970001,88.940002,86.027992,236000
2017-10-17,89.300003,89.300003,88.709999,88.980003,86.066681,175200
2017-10-18,88.730003,89.370003,88.320000,88.599998,85.699127,207400
2017-10-19,88.510002,88.830002,88.349998,88.639999,85.737816,151600
2017-10-20,89.230003,89.309998,88.699997,89.199997,86.279472,134800
2017-10-23,89.160004,89.680000,88.919998,89.029999,86.115044,418900
2017-10-24,89.059998,89.629997,88.830002,89.120003,86.202103,189100
2017-10-25,89.070000,89.470001,87.690002,88.489998,85.592735,201800
2017-10-26,88.809998,89.239998,88.599998,88.940002,86.027992,234700
2017-10-27,89.400002,89.400002,85.889999,87.930000,85.051064,531500
2017-10-30,87.459999,87.589996,86.250000,86.459999,83.629189,260400
2017-10-31,86.250000,87.300003,86.120003,87.070000,84.532089,474700
2017-11-01,87.830002,88.120003,87.209999,87.410004,84.862183,279300
2017-11-02,87.089996,87.370003,86.320000,86.599998,84.075783,259200
2017-11-03,86.599998,87.180000,86.599998,86.940002,84.405876,216000
2017-11-06,87.019997,87.080002,85.680000,85.849998,83.347641,271600
2017-11-07,85.849998,86.110001,85.389999,85.720001,83.221436,326900
2017-11-08,85.680000,86.599998,85.639999,85.730003,83.231140,271400
2017-11-09,85.199997,85.419998,84.320000,84.760002,82.289421,146600
2017-11-10,84.349998,85.110001,84.220001,84.910004,82.435051,195800
2017-11-13,84.620003,85.760002,84.620003,85.589996,83.095215,156100
2017-11-14,85.379997,85.889999,85.160004,85.610001,83.114632,157400
2017-11-15,85.540001,85.980003,85.080002,85.480003,82.988426,182500
2017-11-16,85.739998,86.500000,85.599998,86.110001,83.600060,264400
2017-11-17,86.029999,86.239998,85.480003,85.650002,83.153481,171000
2017-11-20,85.610001,86.430000,85.320000,85.470001,82.978729,220200
2017-11-21,85.919998,86.820000,85.320000,86.540001,84.017548,506700
2017-11-22,86.610001,86.620003,85.790001,85.849998,83.347641,140300
2017-11-24,85.489998,86.339996,85.099998,86.250000,83.735992,108200
2017-11-27,86.370003,87.000000,86.370003,86.739998,84.211708,330900
2017-11-28,87.279999,87.470001,86.430000,86.910004,84.376755,194600
2017-11-29,87.110001,87.739998,87.080002,87.559998,85.007790,193900
2017-11-30,87.610001,88.900002,87.080002,88.410004,85.833023,232000
2017-12-01,88.330002,88.989998,86.440002,87.599998,85.046631,244300
2017-12-04,87.790001,88.699997,87.320000,88.059998,85.493225,290400
2017-12-05,88.330002,89.160004,87.889999,89.000000,86.405838,255800
2017-12-06,88.940002,88.940002,88.120003,88.169998,85.600014,251700
2017-12-07,88.449997,88.720001,87.790001,88.379997,85.803909,258900
2017-12-08,88.269997,88.500000,87.559998,87.900002,85.337891,251000
2017-12-11,87.870003,87.870003,86.860001,87.279999,84.735962,241200
2017-12-12,87.300003,87.540001,85.699997,86.430000,83.910736,424400
2017-12-13,86.050003,87.190002,85.760002,86.690002,84.163162,420900
2017-12-14,87.080002,87.209999,86.320000,86.370003,83.852486,302000
2017-12-15,86.589996,87.510002,86.589996,86.980003,84.444710,474900
2017-12-18,87.250000,87.889999,86.480003,86.570000,84.046661,251800
2017-12-19,86.300003,87.650002,86.300003,86.580002,84.056358,367200
2017-12-20,86.839996,87.129997,86.290001,86.330002,83.813644,189500
2017-12-21,86.400002,86.790001,85.720001,85.760002,83.260277,265400
2017-12-22,85.680000,86.360001,85.430000,85.900002,83.396202,162500
2017-12-26,85.790001,86.449997,85.220001,85.389999,82.901031,130500
2017-12-27,85.419998,85.820000,85.059998,85.620003,83.124344,114500
2017-12-28,85.849998,86.870003,85.660004,86.750000,84.221413,207000
2017-12-29,86.879997,87.000000,86.239998,86.279999,83.765114,148900
2018-01-02,86.440002,87.320000,86.080002,87.010002,84.473846,233300
2018-01-03,87.260002,87.610001,86.820000,87.190002,84.648598,177700
2018-01-04,87.209999,87.930000,85.800003,86.010002,83.502991,362900
2018-01-05,86.290001,87.449997,86.190002,86.910004,84.376755,209200
2018-01-08,86.860001,87.510002,86.570000,87.199997,84.658287,341200
2018-01-09,87.279999,87.760002,86.360001,86.389999,83.871910,282000
2018-01-10,86.099998,86.099998,85.160004,85.669998,83.172890,161400
2018-01-11,85.440002,86.489998,85.440002,86.250000,83.735992,311600
2018-01-12,86.370003,86.940002,85.879997,86.559998,84.036942,179400
2018-01-16,86.360001,87.209999,86.010002,86.239998,83.726280,254000
2018-01-17,86.769997,87.279999,86.510002,86.839996,84.308784,250400
2018-01-18,86.849998,87.320000,86.349998,87.239998,84.697128,220800
2018-01-19,87.300003,88.699997,87.300003,88.610001,86.027191,177500
2018-01-22,88.610001,88.610001,86.599998,87.459999,84.910713,369900
2018-01-23,87.440002,87.750000,86.910004,87.599998,85.046631,158800
2018-01-24,87.809998,88.599998,86.349998,88.199997,85.629150,255000
2018-01-25,88.400002,89.430000,88.129997,89.430000,86.823303,339100
2018-01-26,89.480003,89.500000,88.459999,89.139999,86.541748,206300
2018-01-29,88.730003,89.230003,87.540001,87.730003,85.172859,254300
2018-01-30,87.449997,87.959999,87.050003,87.690002,85.445686,345000
2018-01-31,88.089996,88.099998,86.760002,87.419998,85.182594,519100
2018-02-01,87.239998,87.629997,85.809998,86.839996,84.617432,220800
2018-02-02,86.529999,86.910004,85.540001,85.800003,83.604065,217000
2018-02-05,85.099998,86.000000,83.379997,83.379997,81.245987,434200
2018-02-06,82.379997,83.889999,81.410004,83.790001,81.645500,352300
2018-02-07,83.809998,84.910004,83.730003,83.849998,81.703957,304100
2018-02-08,83.860001,84.820000,81.360001,81.379997,79.297188,349100
2018-02-09,82.089996,82.589996,79.970001,82.160004,80.057213,367200
2018-02-12,82.559998,83.449997,81.589996,82.599998,80.485947,303000
2018-02-13,86.750000,92.320000,86.300003,89.720001,87.423721,1102000
2018-02-14,89.580002,90.870003,88.739998,90.660004,88.339668,512100
2018-02-15,90.180000,91.970001,90.180000,91.169998,88.836624,333300
2018-02-16,91.040001,92.139999,90.489998,91.830002,89.479721,335500
2018-02-20,91.239998,92.190002,90.720001,91.059998,88.729431,372000
2018-02-21,91.339996,92.279999,90.110001,90.160004,87.852470,283200
2018-02-22,90.440002,91.459999,90.309998,90.610001,88.290947,255300
2018-02-23,90.739998,91.070000,89.930000,90.989998,88.661217,249400
2018-02-26,91.279999,91.480003,90.389999,90.779999,88.456589,250300
2018-02-27,90.730003,90.730003,89.440002,89.500000,87.209358,286500
2018-02-28,89.730003,90.410004,89.209999,89.419998,87.131393,306900
2018-03-01,89.239998,90.489998,88.309998,89.000000,86.722160,241900
2018-03-02,88.739998,89.889999,88.300003,89.680000,87.384750,270600
2018-03-05,89.309998,90.699997,89.309998,90.400002,88.086334,231200
2018-03-06,90.370003,91.050003,89.279999,90.769997,88.446846,295800
2018-03-07,89.980003,91.139999,89.709999,90.139999,87.832977,317500
2018-03-08,90.400002,90.830002,89.449997,89.949997,87.647835,368000
2018-03-09,89.940002,90.949997,89.559998,90.870003,88.544296,283100
2018-03-12,90.699997,90.989998,90.400002,90.779999,88.456589,181100
2018-03-13,91.269997,92.099998,90.269997,90.500000,88.183769,257500
2018-03-14,90.959999,91.269997,89.430000,90.070000,87.764771,266900
2018-03-15,90.139999,90.570000,89.800003,90.279999,87.969398,239600
2018-03-16,90.349998,91.129997,89.760002,90.150002,87.842728,424800
2018-03-19,90.059998,90.360001,89.449997,89.959999,87.657585,155000
2018-03-20,90.019997,90.489998,89.669998,89.779999,87.482185,247700
2018-03-21,89.709999,90.339996,89.389999,89.589996,87.297058,266300
2018-03-22,89.220001,89.910004,87.930000,87.959999,85.708771,260900
2018-03-23,87.940002,87.940002,86.690002,86.769997,84.549225,215900
2018-03-26,87.660004,88.550003,87.070000,88.209999,85.952362,278900
2018-03-27,88.519997,89.129997,87.620003,88.080002,85.825699,253200
2018-03-28,88.080002,88.900002,87.820000,88.360001,86.098541,194000
2018-03-29,88.879997,90.339996,88.360001,89.830002,87.530922,287300
2018-04-02,89.370003,89.739998,87.169998,87.930000,85.679543,184400
2018-04-03,88.430000,90.169998,87.690002,89.559998,87.267822,336600
2018-04-04,88.919998,89.949997,86.849998,89.709999,87.413979,276500
2018-04-05,90.300003,90.849998,89.279999,90.400002,88.086334,276400
2018-04-06,89.690002,90.360001,88.230003,88.500000,86.234955,362200
2018-04-09,89.150002,90.339996,88.599998,89.900002,87.599121,471500
2018-04-10,90.750000,93.099998,90.099998,92.720001,90.346939,455600
2018-04-11,91.970001,92.639999,91.750000,92.250000,89.888969,250800
2018-04-12,92.760002,93.250000,92.480003,92.699997,90.327454,221500
2018-04-13,93.199997,93.330002,92.459999,92.750000,90.376183,262600
2018-04-16,93.029999,94.660004,92.959999,94.309998,91.896255,196900
2018-04-17,94.279999,96.389999,93.790001,96.129997,93.669655,507200
2018-04-18,96.150002,96.199997,95.180000,95.610001,93.162979,346800
2018-04-19,95.050003,95.879997,94.540001,94.800003,92.373711,165000
2018-04-20,95.110001,95.139999,94.120003,94.440002,92.022926,217800
2018-04-23,94.709999,95.430000,94.099998,94.349998,91.935226,189500
2018-04-24,94.599998,94.699997,92.769997,93.180000,90.795174,401900
2018-04-25,93.019997,93.949997,92.370003,93.150002,90.765945,298700
2018-04-26,93.180000,93.699997,92.599998,93.279999,90.892609,417000
2018-04-27,93.750000,94.739998,91.879997,93.459999,91.068008,407500
2018-04-30,93.730003,93.989998,93.050003,93.500000,91.106995,907800
2018-05-01,93.449997,93.870003,92.730003,93.540001,91.145966,427800
2018-05-02,94.000000,94.000000,92.470001,92.559998,90.191040,631100
2018-05-03,92.250000,92.830002,90.980003,91.120003,88.787895,560200
2018-05-04,90.839996,92.769997,90.839996,92.260002,89.898720,339900
2018-05-07,92.370003,93.290001,92.300003,92.800003,90.424896,215100
2018-05-08,92.769997,92.790001,91.550003,91.760002,89.720901,284600
2018-05-09,92.000000,93.059998,91.370003,92.959999,90.894234,255500
2018-05-10,93.099998,93.940002,93.050003,93.790001,91.705788,377900
2018-05-11,93.750000,94.320000,93.150002,94.290001,92.194679,492900
2018-05-14,94.190002,94.709999,92.290001,93.370003,91.295128,477500
2018-05-15,93.169998,93.169998,91.589996,92.099998,90.053337,406400
2018-05-16,92.320000,93.769997,91.919998,93.540001,91.461349,257600
2018-05-17,93.669998,93.919998,93.050003,93.290001,91.216888,242600
2018-05-18,92.559998,94.279999,92.379997,93.559998,91.480896,272300
2018-05-21,94.019997,94.410004,93.839996,94.010002,91.920906,162300
2018-05-22,94.279999,94.949997,93.669998,93.959999,91.872009,165300
2018-05-23,93.629997,94.269997,93.360001,94.089996,91.999107,165800
2018-05-24,94.120003,94.480003,93.580002,94.029999,91.940445,116200
2018-05-25,93.879997,94.419998,93.849998,94.080002,91.989349,154900
2018-05-29,93.459999,94.010002,93.059998,93.309998,91.236443,212700
2018-05-30,92.699997,94.410004,92.699997,93.959999,91.872009,258600
2018-05-31,94.250000,94.389999,92.190002,92.320000,90.268456,151900
2018-06-01,92.879997,93.290001,92.470001,92.769997,90.708450,174800
2018-06-04,93.110001,93.900002,92.440002,93.860001,91.774231,172100
2018-06-05,94.059998,94.500000,93.559998,93.919998,91.832893,114800
2018-06-06,93.669998,94.099998,92.040001,93.910004,91.823120,437300
2018-06-07,93.830002,94.430000,92.440002,93.239998,91.168007,534000
2018-06-08,93.050003,93.900002,92.980003,93.660004,91.578682,290600
2018-06-11,93.790001,94.860001,93.430000,93.820000,91.735115,389400
2018-06-12,94.089996,94.889999,93.599998,94.150002,92.057793,455100
2018-06-13,94.550003,95.000000,94.050003,94.320000,92.224007,321400
2018-06-14,94.809998,95.260002,94.260002,94.860001,92.752014,320400
2018-06-15,95.000000,95.370003,94.389999,94.919998,92.810669,505200
2018-06-18,94.570000,95.080002,94.019997,94.839996,92.732445,347300
2018-06-19,93.949997,94.620003,93.610001,94.250000,92.155571,333700
2018-06-20,94.169998,94.870003,93.940002,94.639999,92.536903,285600
2018-06-21,94.510002,94.610001,92.949997,93.099998,91.031113,296900
2018-06-22,93.279999,93.489998,92.339996,92.629997,90.571556,681100
2018-06-25,92.769997,93.199997,91.419998,92.180000,90.131569,348700
2018-06-26,92.349998,93.449997,92.019997,92.709999,90.649780,266700
2018-06-27,92.779999,93.910004,92.070000,92.099998,90.053337,295800
2018-06-28,92.000000,92.760002,91.660004,92.709999,90.649780,251300
2018-06-29,93.199997,94.120003,92.930000,93.379997,91.304893,335800
2018-07-02,92.910004,93.769997,92.459999,93.589996,91.510231,237500
2018-07-03,93.959999,95.029999,93.610001,93.989998,91.901344,178000
2018-07-05,94.489998,94.540001,93.449997,94.540001,92.439110,249900
2018-07-06,94.220001,94.379997,93.720001,94.080002,91.989349,238000
2018-07-09,94.449997,95.629997,94.449997,95.099998,92.986671,188700
2018-07-10,95.169998,96.160004,95.169998,96.110001,93.974236,216100
2018-07-11,95.610001,96.370003,95.110001,95.680000,93.553780,220800
2018-07-12,96.000000,96.830002,95.589996,95.739998,93.612442,196700
2018-07-13,95.360001,96.190002,94.660004,94.870003,92.761780,205300
2018-07-16,94.769997,94.879997,93.169998,93.290001,91.216888,132000
2018-07-17,93.220001,94.739998,93.160004,94.639999,92.536903,155400
2018-07-18,94.639999,95.180000,94.180000,94.620003,92.517349,150000
2018-07-19,94.699997,96.540001,94.699997,96.330002,94.189339,213300
2018-07-20,95.940002,96.160004,95.330002,95.779999,93.651566,192600
2018-07-23,95.940002,96.330002,94.790001,95.139999,93.025772,195800
2018-07-24,95.339996,95.860001,94.529999,94.750000,92.644455,225300
2018-07-25,94.570000,95.000000,94.050003,94.730003,92.624901,182300
2018-07-26,94.879997,96.379997,94.559998,96.070000,93.935112,170300
2018-07-27,98.000000,103.029999,97.150002,102.900002,100.613335,626000
2018-07-30,103.519997,104.099998,99.940002,102.500000,100.222237,531800
2018-07-31,102.480003,103.480003,100.779999,102.430000,100.487106,588100
2018-08-01,102.400002,102.680000,101.410004,102.430000,100.487106,301400
2018-08-02,101.639999,103.580002,101.309998,102.980003,101.026680,327400
2018-08-03,102.989998,104.500000,102.849998,104.099998,102.125443,300200
2018-08-06,104.010002,104.949997,103.980003,104.209999,102.233345,279500
2018-08-07,104.160004,104.680000,103.389999,103.550003,101.585869,296500
2018-08-08,103.339996,103.980003,102.870003,102.959999,101.007057,277900
2018-08-09,103.110001,104.070000,103.000000,103.900002,101.929222,265500
2018-08-10,103.370003,104.040001,102.160004,102.379997,100.438049,325600
2018-08-13,102.239998,103.470001,100.940002,101.400002,99.476646,227800
2018-08-14,101.889999,102.500000,101.330002,101.980003,100.045647,176500
2018-08-15,101.559998,101.660004,100.059998,101.339996,99.417770,300500
2018-08-16,101.620003,102.160004,101.349998,101.669998,99.741508,276300
2018-08-17,101.680000,102.989998,101.400002,102.760002,100.810852,131800
2018-08-20,102.919998,103.519997,102.599998,102.860001,100.908958,198600
2018-08-21,102.830002,103.849998,102.830002,103.290001,101.330795,209600
2018-08-22,103.320000,103.400002,102.739998,103.180000,101.222885,103300
2018-08-23,103.320000,103.550003,102.760002,102.910004,100.958000,124400
2018-08-24,102.980003,104.139999,102.980003,103.800003,101.831131,127300
2018-08-27,103.790001,104.839996,103.790001,104.540001,102.557083,175400
2018-08-28,104.559998,105.190002,103.809998,103.889999,101.919411,214900
2018-08-29,104.199997,105.169998,103.769997,104.699997,102.714043,199700
2018-08-30,104.860001,105.769997,103.820000,104.699997,102.714043,231900
2018-08-31,104.620003,105.440002,104.379997,104.709999,102.723854,153000
2018-09-04,105.320000,106.500000,104.580002,106.379997,104.362190,323600
2018-09-05,106.279999,108.779999,106.279999,108.180000,106.128036,334100
2018-09-06,108.400002,109.690002,108.129997,108.949997,106.883423,228400
2018-09-07,108.940002,108.940002,107.790001,107.900002,105.853348,258500
2018-09-10,108.389999,109.080002,107.889999,108.559998,106.500832,212400
2018-09-11,108.260002,108.730003,107.540001,108.519997,106.461594,101600
2018-09-12,108.360001,109.629997,108.120003,109.389999,107.315086,154700
2018-09-13,108.750000,110.900002,108.669998,110.820000,108.717964,273900
2018-09-14,110.769997,112.160004,109.790001,111.970001,109.846153,424200
2018-09-17,112.300003,112.309998,110.910004,111.300003,109.188858,564500
2018-09-18,111.199997,111.790001,109.970001,111.589996,109.473351,202600
2018-09-19,111.669998,111.900002,110.529999,111.129997,109.022079,204300
2018-09-20,111.279999,111.510002,110.190002,110.489998,108.394211,204500
2018-09-21,110.169998,110.849998,109.669998,110.320000,108.227448,473200
2018-09-24,110.199997,111.470001,109.989998,110.379997,108.286301,352400
2018-09-25,110.750000,110.959999,108.620003,108.760002,106.697044,279000
2018-09-26,108.660004,109.489998,108.370003,108.599998,106.540070,629100
2018-09-27,108.599998,109.190002,108.160004,108.339996,106.284996,255600
2018-09-28,108.209999,108.889999,107.550003,107.739998,105.696388,416900
2018-10-01,108.050003,109.199997,107.370003,107.769997,105.725815,208600
2018-10-02,107.930000,108.610001,107.599998,108.150002,106.098610,210300
2018-10-03,108.510002,108.629997,107.529999,108.000000,105.951462,361200
2018-10-04,107.790001,107.790001,106.300003,107.089996,105.058708,273300
2018-10-05,107.169998,107.639999,106.959999,107.169998,105.137199,220800
2018-10-08,107.120003,107.849998,106.839996,107.669998,105.627716,164700
2018-10-09,107.389999,107.389999,105.680000,105.720001,103.714706,277500
2018-10-10,105.300003,105.769997,102.120003,102.419998,100.477295,456000
2018-10-11,102.370003,103.459999,101.459999,101.570000,99.643410,312700
2018-10-12,102.680000,103.360001,100.339996,101.650002,99.721901,399100
2018-10-15,101.669998,102.959999,101.050003,102.150002,100.212418,239600
2018-10-16,102.660004,105.769997,102.660004,105.599998,103.596985,231300
2018-10-17,106.089996,106.089996,104.419998,105.019997,103.027985,180900
2018-10-18,104.730003,105.239998,103.830002,104.269997,102.292191,439900
2018-10-19,104.589996,105.209999,104.279999,104.320000,102.341255,271800
2018-10-22,104.610001,104.739998,103.050003,103.970001,101.997887,199300
2018-10-23,102.730003,104.570000,101.720001,103.680000,101.713394,479500
2018-10-24,103.629997,103.820000,99.879997,100.080002,98.181686,498300
2018-10-25,100.879997,101.970001,100.510002,101.290001,99.368736,299800
2018-10-26,100.449997,101.050003,99.309998,100.360001,98.456367,423800
2018-10-29,101.320000,102.070000,99.139999,100.160004,98.260162,271300
2018-10-30,100.040001,101.410004,99.339996,101.370003,99.785942,318600
2018-10-31,102.430000,103.070000,101.849998,101.959999,100.366722,417100
2018-11-01,102.690002,103.470001,102.389999,103.180000,101.567650,392600
2018-11-02,97.050003,105.330002,95.059998,103.800003,102.177971,959300
2018-11-05,103.989998,104.480003,101.250000,101.879997,100.287964,481500
2018-11-06,101.639999,104.769997,101.489998,104.099998,102.473282,381300
2018-11-07,104.879997,105.260002,103.339996,105.110001,103.467499,340200
2018-11-08,104.949997,105.769997,104.599998,105.129997,103.487183,368400
2018-11-09,104.959999,105.800003,103.129997,104.290001,102.660316,227100
2018-11-12,104.160004,104.349998,101.580002,101.769997,100.179680,343100
2018-11-13,102.330002,103.459999,101.540001,102.379997,100.780159,225200
2018-11-14,103.040001,103.910004,101.709999,102.080002,100.484840,163200
2018-11-15,101.550003,104.830002,101.209999,104.790001,103.152496,261000
2018-11-16,104.190002,107.150002,104.190002,106.279999,104.619209,235400
2018-11-19,106.199997,106.650002,104.709999,105.180000,103.536407,192700
2018-11-20,104.620003,105.430000,103.370003,104.309998,102.679993,246800
2018-11-21,104.680000,105.190002,103.150002,103.500000,101.882652,221600
2018-11-23,103.000000,104.419998,102.980003,103.900002,102.276405,75400
2018-11-26,104.720001,104.989998,102.949997,103.690002,102.069679,231700
2018-11-27,103.300003,103.320000,102.089996,102.300003,100.701408,213400
2018-11-28,102.800003,104.070000,101.680000,104.029999,102.404366,327800
2018-11-29,103.720001,104.930000,103.690002,103.849998,102.227180,238400
2018-11-30,103.660004,104.550003,103.250000,104.050003,102.424057,330400
2018-12-03,105.230003,105.510002,102.449997,104.459999,102.827652,292000
2018-12-04,104.860001,104.860001,102.830002,102.940002,101.331406,273100
2018-12-06,102.000000,102.000000,98.349998,101.629997,100.041870,302900
2018-12-07,100.889999,102.849998,99.099998,99.769997,98.210938,226100
2018-12-10,99.430000,99.860001,98.220001,99.110001,97.561256,161100
2018-12-11,100.099998,101.019997,98.279999,98.669998,97.128120,192600
2018-12-12,100.099998,100.940002,99.750000,99.930000,98.368439,240900
2018-12-13,100.419998,101.269997,99.510002,100.320000,98.752350,167800
2018-12-14,100.040001,100.959999,99.129997,100.339996,98.772034,187100
2018-12-17,99.839996,100.650002,98.040001,98.639999,97.098602,313900
2018-12-18,99.430000,100.269997,97.269997,97.940002,96.409538,231000
2018-12-19,98.279999,98.839996,95.269997,95.589996,94.096260,268300
2018-12-20,95.510002,96.150002,93.669998,95.010002,93.525322,248100
2018-12-21,94.760002,96.610001,93.510002,93.550003,92.088142,588800
2018-12-24,92.860001,92.860001,89.669998,89.699997,88.298302,168300
2018-12-26,89.720001,92.010002,89.720001,91.769997,90.335945,394400
2018-12-27,90.699997,92.480003,90.010002,92.370003,90.926590,467500
2018-12-28,92.599998,93.910004,92.050003,92.699997,91.251419,437400
2018-12-31,92.820000,94.070000,92.660004,94.070000,92.600014,246900
2019-01-02,92.730003,92.730003,89.449997,90.180000,88.770805,517500
2019-01-03,88.970001,90.209999,88.260002,89.089996,87.697838,637200
2019-01-04,90.099998,91.900002,89.290001,91.070000,89.646896,433600
2019-01-07,90.599998,93.489998,90.580002,91.949997,90.513138,525400
2019-01-08,92.820000,94.099998,91.760002,93.519997,92.058601,379600
2019-01-09,93.860001,94.199997,93.209999,93.480003,92.019234,195700
2019-01-10,93.139999,94.820000,93.129997,94.580002,93.102051,205800
2019-01-11,94.669998,94.750000,93.430000,94.730003,93.249710,248200
2019-01-14,94.279999,94.849998,93.739998,93.959999,92.491730,210500
2019-01-15,93.970001,95.400002,93.900002,94.809998,93.328445,213900
2019-01-16,94.820000,95.349998,94.389999,94.709999,93.230011,187100
2019-01-17,94.389999,96.169998,94.379997,95.930000,94.430939,265500
2019-01-18,96.099998,97.970001,95.879997,97.690002,96.163445,237400
2019-01-22,97.419998,98.250000,95.120003,96.440002,94.932983,304000
2019-01-23,96.699997,97.769997,96.250000,97.379997,95.858292,266300
2019-01-24,97.250000,98.059998,96.709999,97.129997,95.612190,135300
2019-01-25,97.910004,98.349998,97.070000,97.389999,95.868141,116300
2019-01-28,97.389999,98.510002,97.279999,97.879997,96.350479,217900
2019-01-29,97.419998,98.419998,97.419998,97.940002,96.745605,161600
2019-01-30,98.099998,98.800003,97.620003,97.959999,96.765350,292500
2019-01-31,98.000000,99.279999,97.239998,99.120003,97.911209,346500
2019-02-01,99.330002,99.980003,99.050003,99.550003,98.335960,269600
2019-02-04,99.419998,99.889999,98.519997,99.849998,98.632309,137200
2019-02-05,99.949997,101.129997,99.419998,101.070000,99.837425,288000
2019-02-06,100.620003,102.000000,100.580002,101.589996,100.351089,206800
2019-02-07,101.129997,102.040001,100.839996,101.949997,100.706696,202100
2019-02-08,101.570000,102.309998,100.959999,101.389999,100.153526,184300
2019-02-11,101.879997,102.449997,101.239998,101.699997,100.459740,239100
2019-02-12,102.300003,102.690002,101.739998,102.320000,101.072189,230000
2019-02-13,102.709999,103.510002,102.260002,102.800003,101.546333,229700
2019-02-14,102.239998,103.029999,101.559998,101.769997,100.528885,234000
2019-02-15,102.320000,102.459999,101.349998,101.940002,100.696823,235800
2019-02-19,101.839996,102.029999,101.260002,101.550003,100.311584,378800
2019-02-20,101.470001,102.660004,101.309998,102.260002,101.012917,282100
2019-02-21,102.300003,104.000000,100.639999,103.120003,101.862427,508600
2019-02-22,102.480003,103.550003,101.239998,102.050003,100.805473,303400
2019-02-25,102.269997,102.599998,101.110001,101.559998,100.321449,336100
2019-02-26,101.209999,101.669998,100.930000,101.309998,100.074501,302500
2019-02-27,102.019997,102.300003,100.790001,101.410004,100.173286,375300
2019-02-28,101.260002,102.050003,100.970001,101.730003,100.489380,311500
2019-03-01,102.209999,102.209999,100.690002,100.809998,99.580597,245900
2019-03-04,101.250000,102.150002,100.629997,101.610001,100.370842,324000
2019-03-05,101.680000,102.269997,101.330002,101.470001,100.232552,211000
2019-03-06,101.529999,102.019997,100.430000,100.489998,99.264503,127500
2019-03-07,100.199997,100.629997,99.360001,99.879997,98.661942,151600
2019-03-08,99.209999,100.620003,99.209999,100.470001,99.244743,146300
2019-03-11,100.599998,102.070000,100.570000,102.019997,100.775833,175300
2019-03-12,102.059998,102.910004,102.050003,102.260002,101.012917,176700
2019-03-13,102.500000,103.339996,102.089996,102.279999,101.032677,287600
2019-03-14,102.339996,103.040001,101.809998,102.889999,101.635231,169400
2019-03-15,102.919998,103.580002,102.580002,103.050003,101.793289,278600
2019-03-18,103.220001,103.839996,102.849998,103.709999,102.445236,132800
2019-03-19,104.220001,104.589996,103.239998,103.599998,102.336578,188800
2019-03-20,103.419998,104.830002,102.860001,103.949997,102.682297,181300
2019-03-21,103.570000,105.680000,103.570000,105.540001,104.252907,194000
2019-03-22,105.260002,105.260002,103.500000,103.830002,102.563766,213200
2019-03-25,103.550003,104.970001,103.019997,104.510002,103.235481,163900
2019-03-26,105.000000,106.379997,104.699997,105.440002,104.154137,262300
2019-03-27,105.519997,106.489998,105.129997,105.519997,104.233154,179500
2019-03-28,105.760002,106.389999,105.419998,106.190002,104.894989,129900
2019-03-29,106.099998,106.680000,105.470001,106.389999,105.092545,337900
2019-04-01,106.910004,107.820000,106.209999,107.709999,106.396446,234000
2019-04-02,107.800003,107.800003,106.660004,107.220001,105.912430,194600
2019-04-03,107.610001,108.080002,107.160004,107.470001,106.159386,201200
2019-04-04,107.680000,108.160004,107.290001,108.099998,106.781700,164000
2019-04-05,107.570000,108.959999,107.570000,108.739998,107.413887,161400
2019-04-08,108.650002,109.269997,107.989998,108.989998,107.660843,149600
2019-04-09,108.389999,108.559998,107.519997,108.160004,106.840965,183400
2019-04-10,108.220001,109.300003,107.949997,109.040001,107.710228,166200
2019-04-11,109.290001,109.860001,108.980003,109.660004,108.322670,228900
2019-04-12,109.949997,110.699997,109.790001,110.309998,108.964745,185900
2019-04-15,110.339996,110.500000,109.489998,109.889999,108.549866,190500
2019-04-16,109.809998,109.970001,108.760002,109.620003,108.283157,197600
2019-04-17,109.680000,109.750000,107.589996,107.699997,106.386574,150500
2019-04-18,107.930000,108.379997,107.300003,108.209999,106.890350,214600
2019-04-22,108.250000,109.370003,108.250000,108.930000,107.601578,165800
2019-04-23,109.029999,110.529999,109.029999,110.059998,108.717789,220800
2019-04-24,109.970001,110.860001,109.940002,109.940002,108.599258,152200
2019-04-25,109.209999,109.970001,108.830002,109.449997,108.115227,132400
2019-04-26,109.709999,111.650002,109.699997,111.419998,110.061211,138900
2019-04-29,111.379997,111.720001,110.760002,111.320000,109.962425,137600
2019-04-30,110.750000,111.809998,109.930000,111.239998,110.239914,277600
2019-05-01,112.269997,114.660004,111.550003,112.809998,111.795792,336100
2019-05-02,112.809998,113.120003,111.620003,113.000000,111.984085,345200
2019-05-03,113.300003,114.139999,112.730003,113.849998,112.826447,310200
2019-05-06,112.540001,115.519997,112.540001,115.019997,113.985916,263000
2019-05-07,113.980003,114.680000,113.139999,113.970001,112.945366,159500
2019-05-08,113.779999,114.480003,113.309998,113.989998,112.965179,169400
2019-05-09,113.379997,113.790001,112.760002,113.000000,111.984085,259300
2019-05-10,112.720001,113.709999,112.180000,113.599998,112.578690,225100
2019-05-13,111.910004,113.169998,111.290001,112.800003,111.785881,160100
2019-05-14,113.389999,114.360001,112.889999,112.980003,111.964272,132600
2019-05-15,112.760002,113.769997,112.360001,113.239998,112.221924,116500
2019-05-16,113.379997,114.500000,113.260002,114.110001,113.084106,218800
2019-05-17,113.489998,114.459999,113.489998,113.779999,112.757072,151800
2019-05-20,113.190002,113.809998,112.830002,113.040001,112.023727,175600
2019-05-21,113.510002,113.889999,113.089996,113.480003,112.459770,156300
2019-05-22,113.769997,113.980003,113.000000,113.150002,112.132736,146800
2019-05-23,112.540001,113.690002,112.040001,112.959999,111.944443,119600
2019-05-24,113.290001,113.870003,112.750000,112.930000,111.914711,117700
2019-05-28,113.040001,113.620003,112.690002,112.900002,111.884987,259200
2019-05-29,112.540001,113.440002,112.279999,112.699997,111.686783,188200
2019-05-30,112.730003,113.629997,112.540001,113.510002,112.489494,128700
2019-05-31,112.529999,113.730003,111.500000,113.269997,112.251648,247400
2019-06-03,113.410004,115.000000,113.410004,114.029999,113.004822,297400
2019-06-04,114.699997,115.980003,113.680000,115.720001,114.679634,483400
2019-06-05,115.900002,117.180000,115.410004,117.129997,116.076950,392000
2019-06-06,117.209999,120.389999,117.209999,120.230003,119.149094,319800
2019-06-07,120.000000,122.599998,119.919998,121.919998,120.823883,427800
2019-06-10,122.190002,123.279999,121.629997,123.220001,122.112206,253200
2019-06-11,124.000000,124.449997,121.209999,122.580002,121.477959,365600
2019-06-12,122.989998,122.989998,121.190002,121.620003,120.526588,273400
2019-06-13,121.500000,122.099998,120.309998,120.720001,119.634674,166500
2019-06-14,120.459999,120.510002,119.570000,120.089996,119.010345,187300
2019-06-17,120.040001,120.839996,119.790001,120.169998,119.089622,136300
2019-06-18,120.589996,120.699997,119.379997,119.489998,118.415733,208300
2019-06-19,119.629997,120.000000,118.820000,119.410004,118.336464,340200
2019-06-20,120.889999,121.000000,118.279999,119.809998,118.732857,335100
2019-06-21,119.320000,119.849998,117.430000,119.379997,118.306725,603600
2019-06-24,119.500000,119.500000,118.480003,118.779999,117.712120,187700
2019-06-25,119.000000,121.790001,118.879997,121.059998,119.971611,300700
2019-06-26,121.239998,121.250000,119.099998,119.239998,118.167984,236700
2019-06-27,119.389999,121.809998,119.389999,121.550003,120.457222,247700
2019-06-28,121.620003,124.750000,121.620003,124.339996,123.222130,831100
2019-07-01,125.000000,126.199997,123.120003,124.269997,123.152763,322000
2019-07-02,124.370003,124.709999,123.220001,123.540001,122.429329,402400
2019-07-03,124.000000,125.919998,124.000000,125.919998,124.787918,188600
2019-07-05,125.209999,125.260002,123.010002,124.610001,123.489708,255300
2019-07-08,125.500000,125.500000,123.639999,123.989998,122.875282,199600
2019-07-09,123.790001,124.529999,123.790001,124.070000,122.954559,235000
2019-07-10,124.629997,125.790001,123.349998,123.580002,122.468964,169900
2019-07-11,123.269997,124.120003,123.010002,124.019997,122.905006,226400
2019-07-12,124.190002,124.190002,123.209999,123.410004,122.300491,241000
2019-07-15,123.150002,123.959999,122.690002,122.919998,121.814896,189600
2019-07-16,123.120003,123.360001,122.300003,123.160004,122.052750,230800
2019-07-17,123.120003,124.430000,123.120003,123.529999,122.419411,267300
2019-07-18,123.150002,124.449997,123.029999,124.360001,123.241959,185300
2019-07-19,124.709999,124.949997,123.360001,123.400002,122.290581,226000
2019-07-22,123.510002,123.889999,122.820000,123.160004,122.052750,153800
2019-07-23,123.889999,124.709999,123.379997,124.510002,123.390602,183600
2019-07-24,124.010002,124.550003,122.839996,123.290001,122.181572,215300
2019-07-25,123.000000,124.279999,122.680000,122.919998,121.814896,273700
2019-07-26,123.129997,124.769997,122.930000,124.489998,123.370781,198000
2019-07-29,124.449997,125.660004,123.540001,124.940002,123.816742,277400
2019-07-30,123.800003,124.570000,122.959999,123.809998,123.051460,221700
2019-07-31,123.489998,123.860001,119.940002,121.019997,120.278549,621400
2019-08-01,120.190002,120.190002,114.839996,117.559998,116.839752,533000
2019-08-02,116.610001,118.339996,115.650002,118.019997,117.296928,316600
2019-08-05,116.440002,119.029999,116.250000,117.080002,116.362694,462500
2019-08-06,117.550003,120.809998,117.379997,119.720001,118.986519,356400
2019-08-07,119.099998,122.260002,118.699997,121.660004,120.914635,268700
2019-08-08,122.480003,124.000000,121.589996,122.870003,122.117226,374300
2019-08-09,122.739998,123.230003,121.050003,121.080002,120.338181,186400
2019-08-12,121.019997,121.680000,119.919998,120.040001,119.304558,132900
2019-08-13,119.779999,121.809998,119.050003,121.220001,120.477333,216300
2019-08-14,120.010002,120.730003,118.989998,119.089996,118.360374,375800
2019-08-15,119.250000,120.250000,117.949997,118.330002,117.605034,238400
2019-08-16,118.910004,120.739998,117.949997,120.250000,119.513275,197800
2019-08-19,121.199997,121.480003,120.000000,120.220001,119.483459,206400
2019-08-20,120.099998,120.099998,118.459999,118.879997,118.151665,141800
2019-08-21,119.660004,119.830002,118.889999,119.330002,118.598907,298500
2019-08-22,119.830002,120.720001,119.040001,120.540001,119.801491,227100
2019-08-23,120.550003,121.330002,119.889999,120.260002,119.523216,296100
2019-08-26,120.720001,121.230003,119.910004,120.989998,120.248734,237100
2019-08-27,121.480003,121.830002,120.809998,121.500000,120.755615,183000
2019-08-28,121.489998,122.139999,120.629997,121.860001,121.113403,221100
2019-08-29,122.879997,123.440002,121.150002,121.690002,120.944450,184600
2019-08-30,122.379997,123.320000,121.230003,122.220001,121.471199,183700
2019-09-03,120.809998,121.080002,118.570000,119.650002,118.916946,262000
2019-09-04,120.730003,122.050003,120.190002,121.940002,121.192917,160800
2019-09-05,122.989998,123.209999,120.980003,121.199997,120.457451,230100
2019-09-06,120.959999,121.839996,120.320000,120.879997,120.139404,239300
2019-09-09,121.570000,121.570000,118.769997,119.099998,118.370316,232900
2019-09-10,118.980003,119.320000,116.120003,119.110001,118.380257,258200
2019-09-11,118.900002,119.529999,116.720001,118.629997,117.903198,231700
2019-09-12,119.080002,119.699997,117.980003,118.050003,117.326752,163300
2019-09-13,118.550003,118.970001,117.660004,118.400002,117.674606,269900
2019-09-16,117.720001,117.720001,115.870003,116.480003,115.766373,192100
2019-09-17,116.199997,117.860001,116.070000,117.010002,116.293121,216700
2019-09-18,116.889999,118.949997,116.559998,118.300003,117.575218,253400
2019-09-19,118.330002,118.949997,117.639999,117.849998,117.127975,304200
2019-09-20,118.139999,119.019997,117.559998,118.050003,117.326752,527900
2019-09-23,117.610001,118.970001,117.610001,118.099998,117.376442,164300
2019-09-24,118.599998,119.489998,118.250000,118.510002,117.783928,187100
2019-09-25,118.709999,119.440002,118.669998,119.120003,118.390198,202100
2019-09-26,119.570000,119.680000,118.519997,118.919998,118.191422,117900
2019-09-27,119.209999,119.309998,118.059998,118.669998,117.942955,149100
2019-09-30,118.949997,119.410004,117.839996,118.449997,117.724289,219700
2019-10-01,119.290001,119.730003,117.500000,117.669998,116.949074,143300
2019-10-02,117.000000,117.019997,115.059998,115.349998,114.643288,225600
2019-10-03,115.000000,115.230003,113.779999,114.989998,114.285500,241100
2019-10-04,115.309998,117.620003,115.089996,117.330002,116.611160,162400
2019-10-07,116.690002,117.449997,116.239998,116.559998,115.845879,216100
2019-10-08,116.010002,117.760002,114.510002,114.779999,114.076782,221900
2019-10-09,115.820000,116.889999,115.379997,116.480003,115.766373,134700
2019-10-10,116.480003,117.239998,115.730003,116.309998,115.597412,102400
2019-10-11,116.919998,118.000000,116.239998,116.330002,115.617294,213700
2019-10-14,116.320000,116.879997,115.739998,115.849998,115.140221,131900
2019-10-15,116.339996,116.639999,115.050003,115.180000,114.474335,182500
2019-10-16,115.139999,115.599998,114.400002,115.470001,114.762558,213700
2019-10-17,115.570000,117.080002,115.500000,116.550003,115.835945,153800
2019-10-18,116.419998,118.000000,116.419998,117.779999,117.058403,219100
2019-10-21,118.370003,119.110001,117.800003,117.900002,117.177673,142900
2019-10-22,118.029999,118.050003,116.620003,116.660004,115.945267,85400
2019-10-23,116.529999,117.930000,116.500000,117.370003,116.650925,104800
2019-10-24,117.449997,118.129997,116.739998,117.339996,116.621101,122500
2019-10-25,117.209999,118.620003,117.209999,117.879997,117.157791,120300
2019-10-28,117.959999,118.800003,117.839996,118.199997,117.475822,134100
2019-10-29,117.449997,119.129997,117.449997,118.510002,118.143761,136600
2019-10-30,118.580002,119.629997,117.769997,119.250000,118.881470,148200
2019-10-31,119.040001,119.629997,117.620003,118.150002,117.784874,316000
2019-11-01,113.669998,115.559998,109.540001,110.790001,110.447617,583300
2019-11-04,111.010002,111.760002,108.410004,108.669998,108.334167,553700
2019-11-05,109.209999,110.250000,108.430000,108.660004,108.324203,385300
2019-11-06,108.669998,109.809998,108.419998,109.489998,109.151634,369800
2019-11-07,109.529999,110.529999,108.910004,109.400002,109.061913,189400
2019-11-08,109.309998,110.930000,108.870003,109.000000,108.663147,303500
2019-11-11,108.480003,109.760002,108.480003,108.580002,108.244446,181500
2019-11-12,108.639999,109.300003,108.160004,108.220001,107.885559,185400
2019-11-13,108.320000,110.070000,108.019997,109.620003,109.281235,385400
2019-11-14,109.480003,110.580002,109.480003,110.470001,110.128609,224000
2019-11-15,110.730003,110.730003,109.699997,109.959999,109.620178,307300
2019-11-18,109.919998,110.949997,109.879997,110.339996,109.999001,352100
2019-11-19,110.730003,111.400002,110.449997,110.500000,110.158516,258700
2019-11-20,110.120003,111.849998,110.120003,110.699997,110.357895,961400
2019-11-21,111.230003,112.050003,110.180000,111.300003,110.956047,244200
2019-11-22,111.650002,111.669998,110.000000,110.120003,109.779694,151700
2019-11-25,110.260002,111.059998,110.169998,110.949997,110.607117,264400
2019-11-26,111.519997,112.650002,110.970001,112.559998,112.212143,221900
2019-11-27,112.989998,113.580002,112.629997,112.830002,112.481316,145500
2019-11-29,112.639999,113.209999,111.940002,112.120003,111.773506,89300
2019-12-02,112.519997,112.720001,111.620003,112.010002,111.663849,273300
2019-12-03,111.510002,113.309998,111.139999,112.709999,112.361679,246400
2019-12-04,112.739998,113.480003,111.739998,111.779999,111.434555,284600
2019-12-05,111.889999,112.660004,111.650002,111.949997,111.604027,243700
2019-12-06,112.790001,113.000000,111.800003,112.080002,111.733635,322100
2019-12-09,112.309998,112.839996,111.690002,112.629997,112.281929,255000
2019-12-10,112.470001,112.830002,111.339996,111.940002,111.594063,219500
2019-12-11,111.970001,112.769997,111.900002,112.570000,112.222115,141100
2019-12-12,112.510002,114.440002,112.510002,114.180000,113.827141,407000
2019-12-13,113.980003,115.389999,113.330002,113.970001,113.617790,380400
2019-12-16,114.459999,114.709999,113.300003,114.320000,113.966705,194200
2019-12-17,114.129997,114.750000,113.059998,113.349998,112.999702,248900
2019-12-18,113.349998,113.370003,112.360001,113.080002,112.730545,204000
2019-12-19,113.160004,113.480003,112.800003,113.260002,112.909988,172100
2019-12-20,113.720001,115.139999,113.720001,114.959999,114.604729,473500
2019-12-23,114.930000,115.370003,114.230003,115.370003,115.013466,144300
2019-12-24,115.309998,115.639999,114.680000,114.730003,114.375443,63800
2019-12-26,114.739998,114.860001,113.800003,114.820000,114.465164,110900
2019-12-27,115.220001,115.349998,114.150002,115.019997,114.664543,87800
2019-12-30,114.940002,115.800003,114.669998,115.760002,115.402260,193000
2019-12-31,115.720001,116.199997,115.019997,115.620003,115.262695,310700
2020-01-02,115.500000,116.480003,112.930000,113.680000,113.328682,362700
2020-01-03,112.809998,114.839996,112.809998,114.040001,113.687576,221500
2020-01-06,113.660004,114.489998,113.559998,114.050003,113.697548,282400
2020-01-07,113.559998,114.010002,112.739998,112.910004,112.561066,234700
2020-01-08,113.080002,114.180000,113.080002,113.220001,112.870110,331000
2020-01-09,113.769997,115.059998,113.320000,114.660004,114.305664,329100
2020-01-10,114.660004,116.169998,114.570000,115.790001,115.432167,196800
2020-01-13,115.489998,116.559998,115.370003,116.199997,115.840897,248500
2020-01-14,116.250000,116.320000,115.139999,116.129997,115.771111,160800
2020-01-15,116.320000,117.230003,115.900002,116.709999,116.349319,241500
2020-01-16,117.209999,118.269997,117.180000,118.220001,117.854660,187300
2020-01-17,118.309998,118.610001,117.059998,117.320000,116.957436,190600
2020-01-21,116.660004,116.769997,115.349998,115.629997,115.272659,189300
2020-01-22,115.690002,116.430000,115.480003,115.669998,115.312531,141800
2020-01-23,115.330002,119.019997,114.769997,117.370003,117.007286,301000
2020-01-24,117.400002,118.160004,116.620003,117.120003,116.758057,213000
2020-01-27,115.540001,117.260002,115.220001,116.489998,116.129997,239100
2020-01-28,116.410004,116.580002,115.570000,115.970001,115.970001,178600
2020-01-29,115.910004,117.080002,115.529999,115.940002,115.940002,211200
2020-01-30,115.019997,117.010002,114.330002,116.540001,116.540001,153200
2020-01-31,115.910004,116.389999,115.139999,115.510002,115.510002,300700
2020-02-03,115.610001,117.540001,115.510002,117.239998,117.239998,271300
2020-02-04,117.790001,118.489998,116.199997,116.949997,116.949997,313700
2020-02-05,117.139999,118.290001,116.750000,117.870003,117.870003,188100
2020-02-06,118.050003,118.949997,117.459999,117.529999,117.529999,247800
2020-02-07,117.070000,117.680000,116.220001,116.699997,116.699997,144500
2020-02-10,116.419998,117.099998,115.480003,115.800003,115.800003,142600
2020-02-11,116.019997,116.889999,115.400002,116.050003,116.050003,197600
2020-02-12,116.129997,116.209999,114.300003,114.709999,114.709999,448200
2020-02-13,114.580002,116.550003,113.690002,116.199997,116.199997,200400
2020-02-14,116.599998,117.750000,116.169998,116.669998,116.669998,216800
2020-02-18,116.470001,116.629997,115.080002,115.260002,115.260002,271300
2020-02-19,115.370003,116.620003,114.720001,115.010002,115.010002,289200
2020-02-20,114.610001,115.669998,113.739998,114.930000,114.930000,378400
2020-02-21,111.519997,114.650002,109.160004,111.980003,111.980003,720600
2020-02-24,110.500000,111.209999,109.169998,109.209999,109.209999,447900
2020-02-25,109.220001,109.570000,106.709999,106.940002,106.940002,641400
2020-02-26,104.000000,106.559998,102.769997,104.680000,104.680000,504500
2020-02-27,103.400002,104.760002,101.949997,102.400002,102.400002,670500
2020-02-28,99.730003,102.209999,99.320000,101.070000,101.070000,690800
2020-03-02,101.620003,103.760002,100.809998,103.580002,103.580002,331800
2020-03-03,103.790001,105.720001,102.199997,102.760002,102.760002,353300
2020-03-04,105.389999,107.629997,104.440002,107.440002,107.440002,294500
2020-03-05,105.339996,105.800003,102.639999,103.980003,103.980003,273800
2020-03-06,101.610001,107.410004,101.330002,107.300003,107.300003,624000
2020-03-09,102.739998,105.000000,99.480003,101.449997,101.449997,597100
2020-03-10,103.599998,103.989998,99.389999,103.989998,103.989998,522300
2020-03-11,101.669998,101.669998,97.919998,99.080002,99.080002,705800
2020-03-12,92.480003,96.400002,87.500000,94.400002,94.400002,843100
2020-03-13,98.080002,99.440002,91.120003,96.389999,96.389999,596000
2020-03-16,87.400002,94.480003,87.400002,87.879997,87.879997,667400
2020-03-17,89.949997,96.949997,89.480003,96.449997,96.449997,595700
2020-03-18,91.690002,96.980003,90.339996,96.750000,96.750000,762000
2020-03-19,96.489998,101.220001,93.589996,98.879997,98.879997,354700
2020-03-20,98.809998,99.980003,89.129997,92.510002,92.510002,727300
2020-03-23,92.059998,93.239998,79.839996,83.930000,83.930000,698800
2020-03-24,87.269997,88.320000,82.690002,88.059998,88.059998,535600
2020-03-25,89.000000,93.660004,86.220001,90.180000,90.180000,576200
2020-03-26,90.849998,97.339996,90.220001,96.199997,96.199997,447000
2020-03-27,94.540001,95.839996,92.099998,94.000000,94.000000,482000
2020-03-30,94.970001,100.959999,94.370003,100.480003,100.480003,435400
2020-03-31,100.519997,102.750000,97.440002,99.540001,99.540001,531000
2020-04-01,97.709999,98.680000,95.440002,96.209999,96.209999,296500
2020-04-02,95.809998,97.139999,94.120003,96.150002,96.150002,455700
2020-04-03,94.879997,97.419998,93.360001,94.190002,94.190002,370300
2020-04-06,97.070000,101.180000,97.070000,100.760002,100.760002,503200
2020-04-07,103.550003,103.550003,99.220001,101.120003,101.120003,378000
2020-04-08,102.650002,105.290001,100.639999,104.110001,104.110001,328500
2020-04-09,105.040001,108.029999,104.230003,107.269997,107.269997,399300
2020-04-13,106.989998,107.430000,102.300003,102.349998,102.349998,234000
2020-04-14,104.559998,105.370003,103.360001,104.019997,104.019997,239700
2020-04-15,102.279999,104.190002,100.610001,100.930000,100.930000,441400
2020-04-16,103.029999,103.029999,99.680000,101.849998,101.849998,294000
2020-04-17,103.860001,105.019997,102.400002,102.940002,102.940002,256200
2020-04-20,101.860001,107.940002,101.129997,106.940002,106.940002,856400
2020-04-21,105.849998,106.989998,104.120003,106.120003,106.120003,475500
2020-04-22,106.989998,107.040001,104.120003,106.300003,106.300003,436400